date,minute,label,high,low,open,close,average,volume,notional,numberOfTrades
2019-11-01,09:30,09:30 AM,70.14,70.115,70.14,70.115,70.131,310,21740.65,2
2019-11-01,09:31,09:31 AM,70.115,69.915,70.115,69.915,69.968,150,10495.25,3
2019-11-01,09:32,09:32 AM,69.91,69.735,69.91,69.735,69.9,230,16076.95,4
2019-11-01,09:33,09:33 AM,69.635,69.635,69.635,69.635,69.635,65,4526.275,2
2019-11-01,09:34,09:34 AM,,,,,,0,0.0,0
2019-11-01,09:35,09:35 AM,,,,,,0,0.0,0
2019-11-01,09:36,09:36 AM,69.815,69.815,69.815,69.815,69.815,25,1745.375,1
2019-11-01,09:37,09:37 AM,,,,,,0,0.0,0
2019-11-01,09:38,09:38 AM,69.89,69.84,69.84,69.89,69.87,391,27319.24,4
2019-11-01,09:39,09:39 AM,,,,,,0,0.0,0
2019-11-01,09:40,09:40 AM,,,,,,0,0.0,0
2019-11-01,09:41,09:41 AM,,,,,,0,0.0,0
2019-11-01,09:42,09:42 AM,,,,,,0,0.0,0
2019-11-01,09:43,09:43 AM,70.18,70.18,70.18,70.18,70.18,30,2105.4,1
2019-11-01,09:44,09:44 AM,70.3,70.3,70.3,70.3,70.3,10,703.0,1
2019-11-01,09:45,09:45 AM,70.25,70.155,70.195,70.25,70.165,5229,366890.75,7
2019-11-01,09:46,09:46 AM,,,,,,0,0.0,0
2019-11-01,09:47,09:47 AM,,,,,,0,0.0,0
2019-11-01,09:48,09:48 AM,,,,,,0,0.0,0
2019-11-01,09:49,09:49 AM,70.53,70.45,70.45,70.53,70.50399999999998,400,28201.5,4
2019-11-01,09:50,09:50 AM,70.55,70.525,70.55,70.525,70.529,211,14881.55,3
2019-11-01,09:51,09:51 AM,70.6,70.51,70.51,70.58,70.567,500,35283.5,5
2019-11-01,09:52,09:52 AM,70.54,70.535,70.54,70.535,70.53699999999998,300,21161.0,2
2019-11-01,09:53,09:53 AM,70.43,70.43,70.43,70.43,70.43,170,11973.1,2
2019-11-01,09:54,09:54 AM,70.495,70.49,70.495,70.49,70.493,417,29395.44,3
2019-11-01,09:55,09:55 AM,70.555,70.555,70.555,70.555,70.555,100,7055.5,1
2019-11-01,09:56,09:56 AM,70.69,70.59,70.59,70.69,70.64,400,28256.0,2
2019-11-01,09:57,09:57 AM,,,,,,0,0.0,0
2019-11-01,09:58,09:58 AM,70.71,70.71,70.71,70.71,70.71,500,35355.0,8
2019-11-01,09:59,09:59 AM,,,,,,0,0.0,0
2019-11-01,10:00,10 AM,70.64,70.605,70.605,70.615,70.625,474,33476.135,10
2019-11-01,10:01,10:01 AM,70.61,70.54,70.54,70.61,70.601,115,8119.1,2
2019-11-01,10:02,10:02 AM,,,,,,0,0.0,0
2019-11-01,10:03,10:03 AM,70.78,70.76,70.78,70.76,70.766,145,10261.1,4
2019-11-01,10:04,10:04 AM,70.79,70.72,70.72,70.79,70.73899999999998,139,9832.67,3
2019-11-01,10:05,10:05 AM,70.805,70.805,70.805,70.805,70.805,1,70.805,1
2019-11-01,10:06,10:06 AM,70.85,70.765,70.765,70.85,70.808,285,20180.35,3
2019-11-01,10:07,10:07 AM,70.87,70.86,70.87,70.86,70.867,300,21260.0,2
2019-11-01,10:08,10:08 AM,,,,,,0,0.0,0
2019-11-01,10:09,10:09 AM,70.84,70.84,70.84,70.84,70.84,70,4958.8,2
2019-11-01,10:10,10:10 AM,,,,,,0,0.0,0
2019-11-01,10:11,10:11 AM,,,,,,0,0.0,0
2019-11-01,10:12,10:12 AM,70.9,70.9,70.9,70.9,70.9,200,14180.0,1
2019-11-01,10:13,10:13 AM,70.96,70.92,70.92,70.96,70.941,780,55333.6,2
2019-11-01,10:14,10:14 AM,70.98,70.98,70.98,70.98,70.98,100,7098.0,1
2019-11-01,10:15,10:15 AM,,,,,,0,0.0,0
2019-11-01,10:16,10:16 AM,71.07,71.03,71.03,71.07,71.04899999999998,191,13570.37,2
2019-11-01,10:17,10:17 AM,71.05,71.02,71.03,71.05,71.046,1210,85965.5,9
2019-11-01,10:18,10:18 AM,71.085,71.04,71.085,71.04,71.053,450,31974.0,3
2019-11-01,10:19,10:19 AM,71.02,70.96,71.02,70.96,70.991,600,42594.5,5
2019-11-01,10:20,10:20 AM,71.11,71.04,71.04,71.11,71.062,330,23450.35,4
2019-11-01,10:21,10:21 AM,,,,,,0,0.0,0
2019-11-01,10:22,10:22 AM,71.01,71.01,71.01,71.01,71.01,200,14202.0,2
2019-11-01,10:23,10:23 AM,71.01,70.98,70.98,70.985,71.007,28,1988.205,4
2019-11-01,10:24,10:24 AM,,,,,,0,0.0,0
2019-11-01,10:25,10:25 AM,70.825,70.79,70.79,70.825,70.805,280,19825.5,3
2019-11-01,10:26,10:26 AM,,,,,,0,0.0,0
2019-11-01,10:27,10:27 AM,,,,,,0,0.0,0
2019-11-01,10:28,10:28 AM,70.72,70.72,70.72,70.72,70.72,50,3536.0,1
2019-11-01,10:29,10:29 AM,70.73,70.73,70.73,70.73,70.73,45,3182.85,1
2019-11-01,10:30,10:30 AM,70.825,70.795,70.825,70.795,70.82300000000002,214,15156.13,2
2019-11-01,10:31,10:31 AM,70.82,70.795,70.82,70.795,70.797,437,30938.34,2
2019-11-01,10:32,10:32 AM,70.805,70.765,70.8,70.78,70.78699999999998,545,38579.175,6
2019-11-01,10:33,10:33 AM,70.84,70.84,70.84,70.84,70.84,100,7084.0,1
2019-11-01,10:34,10:34 AM,70.9,70.9,70.9,70.9,70.9,325,23042.5,2
2019-11-01,10:35,10:35 AM,70.98,70.94,70.94,70.98,70.96300000000002,300,21289.0,3
2019-11-01,10:36,10:36 AM,70.93,70.925,70.93,70.925,70.928,150,10639.25,2
2019-11-01,10:37,10:37 AM,70.93,70.925,70.93,70.925,70.92699999999998,520,36882.0,3
2019-11-01,10:38,10:38 AM,70.925,70.9,70.925,70.9,70.908,300,21272.5,3
2019-11-01,10:39,10:39 AM,70.955,70.93,70.93,70.955,70.931,642,45537.935,4
2019-11-01,10:40,10:40 AM,71.09,71.07,71.07,71.09,71.08,300,21324.0,3
2019-11-01,10:41,10:41 AM,71.09,71.09,71.09,71.09,71.09,100,7109.0,1
2019-11-01,10:42,10:42 AM,71.145,71.145,71.145,71.145,71.145,35,2490.075,1
2019-11-01,10:43,10:43 AM,71.195,71.195,71.195,71.195,71.195,100,7119.5,1
2019-11-01,10:44,10:44 AM,71.26,71.26,71.26,71.26,71.26,100,7126.0,1
2019-11-01,10:45,10:45 AM,71.285,71.225,71.225,71.245,71.25399999999998,1500,106881.0,9
2019-11-01,10:46,10:46 AM,,,,,,0,0.0,0
2019-11-01,10:47,10:47 AM,71.3,71.28,71.285,71.28,71.291,830,59171.3,7
2019-11-01,10:48,10:48 AM,71.31,71.285,71.31,71.285,71.304,400,28521.5,2
2019-11-01,10:49,10:49 AM,71.275,71.18,71.275,71.18,71.23899999999998,263,18735.84,4
2019-11-01,10:50,10:50 AM,71.2,71.2,71.2,71.2,71.2,200,14240.0,1
2019-11-01,10:51,10:51 AM,71.235,71.215,71.22,71.215,71.221,400,28488.5,3
2019-11-01,10:52,10:52 AM,,,,,,0,0.0,0
2019-11-01,10:53,10:53 AM,71.09,71.0,71.09,71.0,71.045,200,14209.0,2
2019-11-01,10:54,10:54 AM,71.01,70.985,70.985,71.01,70.995,154,10933.165,3
2019-11-01,10:55,10:55 AM,71.015,70.97,71.015,70.97,70.97800000000002,246,17460.69,2
2019-11-01,10:56,10:56 AM,70.95,70.895,70.895,70.95,70.90100000000002,292,20703.265,2
2019-11-01,10:57,10:57 AM,70.9,70.835,70.9,70.835,70.878,300,21263.5,2
2019-11-01,10:58,10:58 AM,70.9,70.86,70.86,70.9,70.87899999999998,430,30477.8,5
2019-11-01,10:59,10:59 AM,70.945,70.9,70.9,70.945,70.922,200,14184.44,3
2019-11-01,11:00,11 AM,,,,,,0,0.0,0
2019-11-01,11:01,11:01 AM,70.945,70.93,70.945,70.93,70.938,200,14187.5,2
2019-11-01,11:02,11:02 AM,,,,,,0,0.0,0
2019-11-01,11:03,11:03 AM,70.8,70.8,70.8,70.8,70.8,225,15930.0,3
2019-11-01,11:04,11:04 AM,70.8,70.755,70.8,70.755,70.764,63,4458.15,2
2019-11-01,11:05,11:05 AM,70.755,70.755,70.755,70.755,70.755,100,7075.5,1
2019-11-01,11:06,11:06 AM,,,,,,0,0.0,0
2019-11-01,11:07,11:07 AM,,,,,,0,0.0,0
2019-11-01,11:08,11:08 AM,70.91,70.91,70.91,70.91,70.91,100,7091.0,1
2019-11-01,11:09,11:09 AM,,,,,,0,0.0,0
2019-11-01,11:10,11:10 AM,70.88,70.88,70.88,70.88,70.88,100,7088.0,1
2019-11-01,11:11,11:11 AM,70.87,70.835,70.87,70.86,70.86,213,15093.205,3
2019-11-01,11:12,11:12 AM,70.945,70.945,70.945,70.945,70.945,51,3618.195,1
2019-11-01,11:13,11:13 AM,,,,,,0,0.0,0
2019-11-01,11:14,11:14 AM,71.0,71.0,71.0,71.0,71.0,200,14200.0,1
2019-11-01,11:15,11:15 AM,71.035,71.035,71.035,71.035,71.035,30,2131.05,1
2019-11-01,11:16,11:16 AM,71.09,71.09,71.09,71.09,71.09,95,6753.55,1
2019-11-01,11:17,11:17 AM,71.115,71.115,71.115,71.115,71.115,100,7111.5,1
2019-11-01,11:18,11:18 AM,,,,,,0,0.0,0
2019-11-01,11:19,11:19 AM,71.08,71.08,71.08,71.08,71.08,14,995.12,2
2019-11-01,11:20,11:20 AM,71.15,71.06,71.06,71.15,71.095,227,16138.675,7
2019-11-01,11:21,11:21 AM,71.19,71.19,71.19,71.19,71.19,400,28476.0,3
2019-11-01,11:22,11:22 AM,,,,,,0,0.0,0
2019-11-01,11:23,11:23 AM,71.195,71.195,71.195,71.195,71.195,55,3915.725,1
2019-11-01,11:24,11:24 AM,71.26,71.23,71.26,71.23,71.242,365,26003.45,3
2019-11-01,11:25,11:25 AM,71.23,71.23,71.23,71.23,71.23,3,213.69,1
2019-11-01,11:26,11:26 AM,71.28,71.28,71.28,71.28,71.28,100,7128.0,1
2019-11-01,11:27,11:27 AM,71.185,71.185,71.185,71.185,71.185,100,7118.5,1
2019-11-01,11:28,11:28 AM,,,,,,0,0.0,0
2019-11-01,11:29,11:29 AM,71.165,71.165,71.165,71.165,71.165,100,7116.5,1
2019-11-01,11:30,11:30 AM,,,,,,0,0.0,0
2019-11-01,11:31,11:31 AM,71.23,71.23,71.23,71.23,71.23,200,14246.0,2
2019-11-01,11:32,11:32 AM,71.235,71.235,71.235,71.235,71.235,100,7123.5,1
2019-11-01,11:33,11:33 AM,71.24,71.24,71.24,71.24,71.24,52,3704.48,2
2019-11-01,11:34,11:34 AM,71.165,71.165,71.165,71.165,71.165,25,1779.125,1
2019-11-01,11:35,11:35 AM,71.11,71.11,71.11,71.11,71.11,100,7111.0,1
2019-11-01,11:36,11:36 AM,71.07,71.07,71.07,71.07,71.07,100,7107.0,1
2019-11-01,11:37,11:37 AM,71.08,71.08,71.08,71.08,71.08,100,7108.0,1
2019-11-01,11:38,11:38 AM,71.055,71.05,71.055,71.05,71.05199999999998,200,14210.5,2
2019-11-01,11:39,11:39 AM,71.06,71.06,71.06,71.06,71.06,100,7106.0,1
2019-11-01,11:40,11:40 AM,71.095,71.065,71.065,71.095,71.081,415,29498.8,6
2019-11-01,11:41,11:41 AM,,,,,,0,0.0,0
2019-11-01,11:42,11:42 AM,71.08,71.08,71.08,71.08,71.08,100,7108.0,1
2019-11-01,11:43,11:43 AM,71.16,71.16,71.16,71.16,71.16,100,7116.0,1
2019-11-01,11:44,11:44 AM,71.205,71.17,71.17,71.205,71.178,130,9253.15,3
2019-11-01,11:45,11:45 AM,71.23,71.22,71.22,71.23,71.22800000000002,237,16881.14,3
2019-11-01,11:46,11:46 AM,71.17,71.17,71.17,71.17,71.17,100,7117.0,1
2019-11-01,11:47,11:47 AM,,,,,,0,0.0,0
2019-11-01,11:48,11:48 AM,71.15,71.13,71.13,71.15,71.14,200,14228.0,2
2019-11-01,11:49,11:49 AM,71.21,71.21,71.21,71.21,71.21,60,4272.6,2
2019-11-01,11:50,11:50 AM,71.185,71.16,71.185,71.16,71.175,300,21352.5,3
2019-11-01,11:51,11:51 AM,71.11,71.1,71.1,71.11,71.102,245,17419.95,2
2019-11-01,11:52,11:52 AM,71.13,71.06,71.13,71.06,71.11,140,9955.4,2
2019-11-01,11:53,11:53 AM,71.01,70.995,71.01,70.995,71.005,300,21301.5,2
2019-11-01,11:54,11:54 AM,71.01,71.01,71.01,71.01,71.01,39,2769.39,1
2019-11-01,11:55,11:55 AM,71.08,71.08,71.08,71.08,71.08,30,2132.4,1
2019-11-01,11:56,11:56 AM,71.08,71.08,71.08,71.08,71.08,100,7108.0,1
2019-11-01,11:57,11:57 AM,71.13,71.1,71.13,71.115,71.115,625,44447.0,7
2019-11-01,11:58,11:58 AM,71.14,71.14,71.14,71.14,71.14,70,4979.8,1
2019-11-01,11:59,11:59 AM,71.135,71.135,71.135,71.135,71.135,200,14227.0,2
2019-11-01,12:00,12 PM,71.19,71.14,71.19,71.14,71.154,225,16009.75,3
2019-11-01,12:01,12:01 PM,,,,,,0,0.0,0
2019-11-01,12:02,12:02 PM,71.145,71.145,71.145,71.145,71.145,200,14229.0,1
2019-11-01,12:03,12:03 PM,71.095,71.095,71.095,71.095,71.095,100,7109.5,1
2019-11-01,12:04,12:04 PM,71.075,71.06,71.07,71.07,71.07300000000002,300,21321.93,5
2019-11-01,12:05,12:05 PM,71.045,71.04,71.04,71.045,71.044,130,9235.7,2
2019-11-01,12:06,12:06 PM,,,,,,0,0.0,0
2019-11-01,12:07,12:07 PM,71.14,71.14,71.14,71.14,71.14,2,142.28,1
2019-11-01,12:08,12:08 PM,,,,,,0,0.0,0
2019-11-01,12:09,12:09 PM,71.11,71.11,71.11,71.11,71.11,100,7111.0,1
2019-11-01,12:10,12:10 PM,71.045,71.04,71.045,71.04,71.044,525,37298.05,6
2019-11-01,12:11,12:11 PM,71.045,71.045,71.045,71.045,71.045,30,2131.35,1
2019-11-01,12:12,12:12 PM,70.93,70.88,70.93,70.88,70.905,200,14181.0,2
2019-11-01,12:13,12:13 PM,,,,,,0,0.0,0
2019-11-01,12:14,12:14 PM,70.835,70.82,70.835,70.82,70.832,125,8854.0,2
2019-11-01,12:15,12:15 PM,,,,,,0,0.0,0
2019-11-01,12:16,12:16 PM,70.82,70.78,70.82,70.78,70.807,300,21242.0,3
2019-11-01,12:17,12:17 PM,70.74,70.74,70.74,70.74,70.74,100,7074.0,2
2019-11-01,12:18,12:18 PM,70.73,70.73,70.73,70.73,70.73,40,2829.2,1
2019-11-01,12:19,12:19 PM,70.67,70.65,70.65,70.67,70.661,230,16252.1,2
2019-11-01,12:20,12:20 PM,,,,,,0,0.0,0
2019-11-01,12:21,12:21 PM,70.745,70.745,70.745,70.745,70.745,25,1768.625,1
2019-11-01,12:22,12:22 PM,70.78,70.77,70.77,70.78,70.773,200,14154.65,4
2019-11-01,12:23,12:23 PM,70.81,70.79,70.8,70.79,70.792,131,9273.81,3
2019-11-01,12:24,12:24 PM,,,,,,0,0.0,0
2019-11-01,12:25,12:25 PM,70.865,70.865,70.865,70.865,70.865,100,7086.5,1
2019-11-01,12:26,12:26 PM,70.9,70.9,70.9,70.9,70.9,30,2127.0,1
2019-11-01,12:27,12:27 PM,70.875,70.875,70.875,70.875,70.875,11,779.625,1
2019-11-01,12:28,12:28 PM,70.92,70.915,70.92,70.915,70.915,203,14395.76,3
2019-11-01,12:29,12:29 PM,70.95,70.93,70.945,70.93,70.939,48,3405.05,3
2019-11-01,12:30,12:30 PM,,,,,,0,0.0,0
2019-11-01,12:31,12:31 PM,,,,,,0,0.0,0
2019-11-01,12:32,12:32 PM,,,,,,0,0.0,0
2019-11-01,12:33,12:33 PM,,,,,,0,0.0,0
2019-11-01,12:34,12:34 PM,,,,,,0,0.0,0
2019-11-01,12:35,12:35 PM,70.87,70.87,70.87,70.87,70.87,19,1346.53,1
2019-11-01,12:36,12:36 PM,70.865,70.82,70.865,70.82,70.85600000000002,220,15588.255,8
2019-11-01,12:37,12:37 PM,,,,,,0,0.0,0
2019-11-01,12:38,12:38 PM,70.765,70.745,70.745,70.765,70.752,6,424.51,2
2019-11-01,12:39,12:39 PM,70.745,70.74,70.74,70.74,70.74,9,636.665,3
2019-11-01,12:40,12:40 PM,70.705,70.705,70.705,70.705,70.705,1,70.705,1
2019-11-01,12:41,12:41 PM,70.7,70.69,70.69,70.7,70.695,2,141.39,2
2019-11-01,12:42,12:42 PM,70.67,70.67,70.67,70.67,70.67,2,141.34,2
2019-11-01,12:43,12:43 PM,70.685,70.645,70.645,70.685,70.678,14,989.495,4
2019-11-01,12:44,12:44 PM,70.665,70.665,70.665,70.665,70.665,101,7137.165,2
2019-11-01,12:45,12:45 PM,70.68,70.68,70.68,70.68,70.68,1,70.68,1
2019-11-01,12:46,12:46 PM,70.73,70.71,70.725,70.71,70.711,64,4525.51,4
2019-11-01,12:47,12:47 PM,70.73,70.71,70.73,70.715,70.718,4,282.87,4
2019-11-01,12:48,12:48 PM,70.66,70.645,70.655,70.65,70.653,4,282.61,4
2019-11-01,12:49,12:49 PM,70.68,70.67,70.67,70.68,70.67699999999998,142,10036.14,4
2019-11-01,12:50,12:50 PM,70.725,70.725,70.725,70.725,70.725,1,70.725,1
2019-11-01,12:51,12:51 PM,70.695,70.63,70.695,70.63,70.67399999999998,5,353.37,4
2019-11-01,12:52,12:52 PM,70.65,70.6,70.6,70.65,70.601,62,4377.29,3
2019-11-01,12:53,12:53 PM,70.71,70.685,70.685,70.71,70.69800000000002,2,141.395,2
2019-11-01,12:54,12:54 PM,70.715,70.655,70.715,70.655,70.685,4,282.74,4
2019-11-01,12:55,12:55 PM,70.7,70.655,70.655,70.7,70.664,238,16818.065,4
2019-11-01,12:56,12:56 PM,70.78,70.7,70.7,70.77,70.723,112,7921.01,8
2019-11-01,12:57,12:57 PM,70.78,70.76,70.76,70.76,70.767,3,212.3,3
2019-11-01,12:58,12:58 PM,70.76,70.72,70.76,70.72,70.742,3,212.225,3
2019-11-01,12:59,12:59 PM,70.7,70.7,70.7,70.7,70.7,2,141.4,1
2019-11-01,13:00,1 PM,70.7,70.68,70.68,70.7,70.7,99,6999.28,2
2019-11-01,13:01,1:01 PM,70.685,70.65,70.685,70.65,70.665,241,17030.335,6
2019-11-01,13:02,1:02 PM,70.67,70.61,70.665,70.61,70.657,17,1201.175,5
2019-11-01,13:03,1:03 PM,70.645,70.61,70.61,70.63,70.628,5,353.14,3
2019-11-01,13:04,1:04 PM,70.625,70.625,70.625,70.625,70.625,2,141.25,2
2019-11-01,13:05,1:05 PM,70.675,70.655,70.66,70.675,70.666,4,282.665,4
2019-11-01,13:06,1:06 PM,70.685,70.675,70.675,70.685,70.675,203,14347.035,4
2019-11-01,13:07,1:07 PM,70.68,70.68,70.68,70.68,70.68,85,6007.8,2
2019-11-01,13:08,1:08 PM,70.69,70.69,70.69,70.69,70.69,1,70.69,1
2019-11-01,13:09,1:09 PM,70.76,70.76,70.76,70.76,70.76,100,7076.0,1
2019-11-01,13:10,1:10 PM,70.765,70.76,70.765,70.76,70.765,855,60503.8,3
2019-11-01,13:11,1:11 PM,70.77,70.77,70.77,70.77,70.77,200,14154.0,2
2019-11-01,13:12,1:12 PM,70.82,70.775,70.82,70.775,70.782,60,4246.95,2
2019-11-01,13:13,1:13 PM,,,,,,0,0.0,0
2019-11-01,13:14,1:14 PM,,,,,,0,0.0,0
2019-11-01,13:15,1:15 PM,70.91,70.91,70.91,70.91,70.91,104,7374.64,2
2019-11-01,13:16,1:16 PM,,,,,,0,0.0,0
2019-11-01,13:17,1:17 PM,71.01,70.99,71.01,70.99,71.0,200,14200.0,5
2019-11-01,13:18,1:18 PM,70.99,70.99,70.99,70.99,70.99,100,7099.0,1
2019-11-01,13:19,1:19 PM,,,,,,0,0.0,0
2019-11-01,13:20,1:20 PM,,,,,,0,0.0,0
2019-11-01,13:21,1:21 PM,,,,,,0,0.0,0
2019-11-01,13:22,1:22 PM,,,,,,0,0.0,0
2019-11-01,13:23,1:23 PM,71.095,71.095,71.095,71.095,71.095,10,710.95,1
2019-11-01,13:24,1:24 PM,71.105,71.105,71.105,71.105,71.105,100,7110.5,1
2019-11-01,13:25,1:25 PM,71.1,71.1,71.1,71.1,71.1,1,71.1,1
2019-11-01,13:26,1:26 PM,71.08,71.08,71.08,71.08,71.08,30,2132.4,1
2019-11-01,13:27,1:27 PM,71.04,71.04,71.04,71.04,71.04,100,7104.0,1
2019-11-01,13:28,1:28 PM,,,,,,0,0.0,0
2019-11-01,13:29,1:29 PM,71.08,71.03,71.03,71.07,71.05,351,24938.57,4
2019-11-01,13:30,1:30 PM,,,,,,0,0.0,0
2019-11-01,13:31,1:31 PM,,,,,,0,0.0,0
2019-11-01,13:32,1:32 PM,71.03,71.03,71.03,71.03,71.03,150,10654.5,1
2019-11-01,13:33,1:33 PM,71.035,71.035,71.035,71.035,71.035,100,7103.5,1
2019-11-01,13:34,1:34 PM,71.03,71.03,71.03,71.03,71.03,50,3551.5,1
2019-11-01,13:35,1:35 PM,70.99,70.99,70.99,70.99,70.99,100,7099.0,1
2019-11-01,13:36,1:36 PM,71.0,71.0,71.0,71.0,71.0,8,568.0,2
2019-11-01,13:37,1:37 PM,,,,,,0,0.0,0
2019-11-01,13:38,1:38 PM,70.96,70.96,70.96,70.96,70.96,106,7521.76,2
2019-11-01,13:39,1:39 PM,,,,,,0,0.0,0
2019-11-01,13:40,1:40 PM,70.985,70.96,70.985,70.96,70.97800000000002,145,10291.75,3
2019-11-01,13:41,1:41 PM,71.06,71.06,71.06,71.06,71.06,30,2131.8,1
2019-11-01,13:42,1:42 PM,71.06,71.05,71.06,71.05,71.055,200,14211.0,2
2019-11-01,13:43,1:43 PM,71.08,71.08,71.08,71.08,71.08,100,7108.0,1
2019-11-01,13:44,1:44 PM,71.08,71.08,71.08,71.08,71.08,100,7108.0,1
2019-11-01,13:45,1:45 PM,71.14,71.14,71.14,71.14,71.14,25,1778.5,1
2019-11-01,13:46,1:46 PM,71.145,71.125,71.125,71.145,71.14399999999998,103,7327.875,2
2019-11-01,13:47,1:47 PM,,,,,,0,0.0,0
2019-11-01,13:48,1:48 PM,71.11,71.11,71.11,71.11,71.11,100,7111.0,1
2019-11-01,13:49,1:49 PM,71.11,71.1,71.1,71.11,71.109,216,15359.6,2
2019-11-01,13:50,1:50 PM,71.08,71.08,71.08,71.08,71.08,1,71.08,1
2019-11-01,13:51,1:51 PM,71.125,71.11,71.11,71.11,71.119,180,12801.36,3
2019-11-01,13:52,1:52 PM,71.17,71.11,71.11,71.17,71.15,300,21345.0,2
2019-11-01,13:53,1:53 PM,,,,,,0,0.0,0
2019-11-01,13:54,1:54 PM,,,,,,0,0.0,0
2019-11-01,13:55,1:55 PM,71.015,70.995,71.015,71.0,70.999,228,16187.7,5
2019-11-01,13:56,1:56 PM,,,,,,0,0.0,0
2019-11-01,13:57,1:57 PM,71.03,71.03,71.03,71.03,71.03,100,7103.0,1
2019-11-01,13:58,1:58 PM,71.08,71.07,71.08,71.07,71.07600000000002,717,50961.69,4
2019-11-01,13:59,1:59 PM,71.13,71.07,71.07,71.13,71.096,664,47207.895,12
2019-11-01,14:00,2 PM,71.12,71.085,71.11,71.085,71.101,6,426.605,6
2019-11-01,14:01,2:01 PM,71.08,71.08,71.08,71.08,71.08,1,71.08,1
2019-11-01,14:02,2:02 PM,71.03,71.01,71.03,71.02,71.018,205,14558.64,6
2019-11-01,14:03,2:03 PM,71.04,71.01,71.04,71.01,71.04,64,4546.53,3
2019-11-01,14:04,2:04 PM,71.01,70.995,71.01,70.995,71.005,3,213.015,3
2019-11-01,14:05,2:05 PM,70.955,70.885,70.955,70.885,70.92399999999998,107,7588.895,8
2019-11-01,14:06,2:06 PM,70.84,70.805,70.84,70.805,70.82300000000002,7,495.765,5
2019-11-01,14:07,2:07 PM,70.85,70.82,70.82,70.85,70.835,18,1275.025,8
2019-11-01,14:08,2:08 PM,70.865,70.86,70.865,70.86,70.862,200,14172.5,2
2019-11-01,14:09,2:09 PM,70.94,70.92,70.94,70.92,70.933,303,21492.82,4
2019-11-01,14:10,2:10 PM,70.895,70.895,70.895,70.895,70.895,1,70.895,1
2019-11-01,14:11,2:11 PM,70.93,70.88,70.89,70.93,70.89,107,7585.275,6
2019-11-01,14:12,2:12 PM,70.915,70.915,70.915,70.915,70.915,3,212.745,2
2019-11-01,14:13,2:13 PM,70.96,70.95,70.95,70.96,70.955,3,212.865,3
2019-11-01,14:14,2:14 PM,70.955,70.86,70.955,70.875,70.86399999999998,44,3118.0,4
2019-11-01,14:15,2:15 PM,70.92,70.885,70.885,70.91,70.917,145,10282.955,6
2019-11-01,14:16,2:16 PM,70.96,70.91,70.91,70.93,70.943,305,21637.65,5
2019-11-01,14:17,2:17 PM,,,,,,0,0.0,0
2019-11-01,14:18,2:18 PM,71.055,70.995,70.995,71.055,71.008,319,22651.545,3
2019-11-01,14:19,2:19 PM,,,,,,0,0.0,0
2019-11-01,14:20,2:20 PM,,,,,,0,0.0,0
2019-11-01,14:21,2:21 PM,71.1,71.1,71.1,71.1,71.1,100,7110.0,2
2019-11-01,14:22,2:22 PM,71.04,71.04,71.04,71.04,71.04,400,28416.0,4
2019-11-01,14:23,2:23 PM,,,,,,0,0.0,0
2019-11-01,14:24,2:24 PM,71.01,70.975,71.01,70.975,70.98,403,28605.03,3
2019-11-01,14:25,2:25 PM,71.02,71.02,71.02,71.02,71.02,400,28408.0,1
2019-11-01,14:26,2:26 PM,71.05,71.05,71.05,71.05,71.05,100,7105.0,1
2019-11-01,14:27,2:27 PM,71.15,71.095,71.095,71.15,71.132,246,17498.37,3
2019-11-01,14:28,2:28 PM,71.22,71.145,71.145,71.22,71.17399999999998,500,35587.0,5
2019-11-01,14:29,2:29 PM,71.215,71.215,71.215,71.215,71.215,200,14243.0,2
2019-11-01,14:30,2:30 PM,,,,,,0,0.0,0
2019-11-01,14:31,2:31 PM,71.3,71.3,71.3,71.3,71.3,200,14260.0,2
2019-11-01,14:32,2:32 PM,71.35,71.35,71.35,71.35,71.35,100,7135.0,1
2019-11-01,14:33,2:33 PM,71.34,71.325,71.34,71.325,71.328,127,9058.68,2
2019-11-01,14:34,2:34 PM,,,,,,0,0.0,0
2019-11-01,14:35,2:35 PM,71.295,71.295,71.295,71.295,71.295,100,7129.5,1
2019-11-01,14:36,2:36 PM,,,,,,0,0.0,0
2019-11-01,14:37,2:37 PM,71.375,71.315,71.315,71.375,71.336,700,49935.5,7
2019-11-01,14:38,2:38 PM,,,,,,0,0.0,0
2019-11-01,14:39,2:39 PM,,,,,,0,0.0,0
2019-11-01,14:40,2:40 PM,71.285,71.285,71.285,71.285,71.285,100,7128.5,1
2019-11-01,14:41,2:41 PM,71.24,71.24,71.24,71.24,71.24,100,7124.0,1
2019-11-01,14:42,2:42 PM,71.23,71.23,71.23,71.23,71.23,200,14246.0,2
2019-11-01,14:43,2:43 PM,71.2,71.2,71.2,71.2,71.2,100,7120.0,1
2019-11-01,14:44,2:44 PM,71.19,71.16,71.19,71.16,71.175,200,14235.0,2
2019-11-01,14:45,2:45 PM,71.165,71.16,71.16,71.165,71.164,378,26899.855,5
2019-11-01,14:46,2:46 PM,71.155,71.155,71.155,71.155,71.155,300,21346.5,3
2019-11-01,14:47,2:47 PM,71.13,71.12,71.13,71.12,71.122,125,8890.25,2
2019-11-01,14:48,2:48 PM,71.16,71.15,71.15,71.16,71.155,200,14231.0,2
2019-11-01,14:49,2:49 PM,71.17,71.17,71.17,71.17,71.17,11,782.87,1
2019-11-01,14:50,2:50 PM,71.16,71.12,71.12,71.16,71.13600000000002,330,23474.9,4
2019-11-01,14:51,2:51 PM,71.165,71.165,71.165,71.165,71.165,100,7116.5,1
2019-11-01,14:52,2:52 PM,71.14,71.13,71.14,71.13,71.134,379,26959.72,2
2019-11-01,14:53,2:53 PM,71.13,71.13,71.13,71.13,71.13,100,7113.0,1
2019-11-01,14:54,2:54 PM,71.175,71.15,71.175,71.15,71.158,300,21347.5,3
2019-11-01,14:55,2:55 PM,71.13,71.1,71.12,71.13,71.115,500,35557.25,6
2019-11-01,14:56,2:56 PM,71.085,71.07,71.07,71.085,71.078,200,14215.5,2
2019-11-01,14:57,2:57 PM,71.105,71.07,71.07,71.105,71.08800000000002,200,14217.5,2
2019-11-01,14:58,2:58 PM,71.14,71.14,71.14,71.14,71.14,100,7114.0,1
2019-11-01,14:59,2:59 PM,71.11,71.11,71.11,71.11,71.11,95,6755.45,2
2019-11-01,15:00,3 PM,71.13,71.11,71.11,71.13,71.122,170,12090.7,2
2019-11-01,15:01,3:01 PM,71.07,71.07,71.07,71.07,71.07,100,7107.0,1
2019-11-01,15:02,3:02 PM,71.11,71.05,71.05,71.11,71.078,300,21323.5,3
2019-11-01,15:03,3:03 PM,71.115,71.085,71.085,71.115,71.1,200,14220.0,2
2019-11-01,15:04,3:04 PM,,,,,,0,0.0,0
2019-11-01,15:05,3:05 PM,71.115,71.11,71.115,71.115,71.113,270,19200.55,3
2019-11-01,15:06,3:06 PM,71.145,71.13,71.13,71.145,71.138,200,14227.5,2
2019-11-01,15:07,3:07 PM,71.14,71.095,71.095,71.13,71.116,400,28446.5,4
2019-11-01,15:08,3:08 PM,,,,,,0,0.0,0
2019-11-01,15:09,3:09 PM,71.155,71.11,71.11,71.155,71.135,385,27386.85,4
2019-11-01,15:10,3:10 PM,71.17,71.17,71.17,71.17,71.17,100,7117.0,1
2019-11-01,15:11,3:11 PM,71.18,71.16,71.16,71.17,71.172,1080,76865.8,11
2019-11-01,15:12,3:12 PM,71.2,71.17,71.17,71.2,71.185,200,14236.99,3
2019-11-01,15:13,3:13 PM,71.23,71.23,71.23,71.23,71.23,100,7123.0,1
2019-11-01,15:14,3:14 PM,71.27,71.25,71.27,71.25,71.256,7,498.79,2
2019-11-01,15:15,3:15 PM,71.21,71.19,71.21,71.2,71.205,206,14668.19,5
2019-11-01,15:16,3:16 PM,71.25,71.23,71.23,71.245,71.248,512,36478.76,4
2019-11-01,15:17,3:17 PM,71.36,71.275,71.275,71.36,71.315,800,57051.85,9
2019-11-01,15:18,3:18 PM,71.34,71.3,71.34,71.3,71.339,152,10843.48,6
2019-11-01,15:19,3:19 PM,71.355,71.355,71.355,71.355,71.355,15,1070.325,1
2019-11-01,15:20,3:20 PM,71.33,71.33,71.33,71.33,71.33,100,7133.0,1
2019-11-01,15:21,3:21 PM,71.29,71.27,71.29,71.27,71.277,540,38489.8,5
2019-11-01,15:22,3:22 PM,71.305,71.29,71.3,71.29,71.30199999999998,301,21461.79,4
2019-11-01,15:23,3:23 PM,71.31,71.295,71.31,71.295,71.3,300,21390.0,3
2019-11-01,15:24,3:24 PM,71.325,71.32,71.325,71.32,71.322,180,12838.0,3
2019-11-01,15:25,3:25 PM,71.325,71.325,71.325,71.325,71.325,200,14265.0,2
2019-11-01,15:26,3:26 PM,71.295,71.295,71.295,71.295,71.295,100,7129.5,1
2019-11-01,15:27,3:27 PM,71.245,71.22,71.245,71.22,71.23,300,21369.0,3
2019-11-01,15:28,3:28 PM,71.22,71.22,71.22,71.22,71.22,30,2136.6,1
2019-11-01,15:29,3:29 PM,71.19,71.16,71.19,71.16,71.16199999999998,108,7685.52,2
2019-11-01,15:30,3:30 PM,71.2,71.195,71.2,71.195,71.196,396,28193.72,2
2019-11-01,15:31,3:31 PM,71.17,71.17,71.17,71.17,71.17,100,7117.0,1
2019-11-01,15:32,3:32 PM,,,,,,0,0.0,0
2019-11-01,15:33,3:33 PM,71.14,71.125,71.125,71.125,71.13,300,21339.0,3
2019-11-01,15:34,3:34 PM,71.135,71.12,71.12,71.13,71.12899999999998,339,24112.57,4
2019-11-01,15:35,3:35 PM,71.14,71.11,71.125,71.11,71.12100000000002,245,17424.72,5
2019-11-01,15:36,3:36 PM,71.135,71.125,71.125,71.135,71.13,200,14226.0,2
2019-11-01,15:37,3:37 PM,71.13,71.1,71.11,71.115,71.11399999999998,1069,76021.01,7
2019-11-01,15:38,3:38 PM,71.135,71.07,71.135,71.07,71.10300000000002,200,14220.5,2
2019-11-01,15:39,3:39 PM,71.09,71.06,71.065,71.09,71.07,377,26793.26,7
2019-11-01,15:40,3:40 PM,71.125,71.125,71.125,71.125,71.125,525,37340.625,4
2019-11-01,15:41,3:41 PM,71.19,71.19,71.19,71.19,71.19,200,14238.0,1
2019-11-01,15:42,3:42 PM,,,,,,0,0.0,0
2019-11-01,15:43,3:43 PM,71.19,71.18,71.18,71.19,71.185,300,21355.5,3
2019-11-01,15:44,3:44 PM,71.175,71.14,71.175,71.145,71.157,365,25972.175,6
2019-11-01,15:45,3:45 PM,71.115,71.105,71.105,71.115,71.111,548,38968.57,7
2019-11-01,15:46,3:46 PM,71.11,71.07,71.11,71.11,71.09,2360,167771.35,16
2019-11-01,15:47,3:47 PM,71.095,71.035,71.095,71.055,71.063,700,49744.0,7
2019-11-01,15:48,3:48 PM,71.025,71.02,71.02,71.025,71.023,350,24858.0,4
2019-11-01,15:49,3:49 PM,71.04,71.01,71.015,71.03,71.028,823,58456.19,8
2019-11-01,15:50,3:50 PM,71.1,71.03,71.03,71.095,71.056,1230,87398.4,14
2019-11-01,15:51,3:51 PM,71.095,70.995,71.095,70.995,71.064,1202,85418.76,14
2019-11-01,15:52,3:52 PM,71.035,71.01,71.01,71.015,71.02,716,50850.605,7
2019-11-01,15:53,3:53 PM,71.035,71.025,71.025,71.035,71.033,860,61088.65,12
2019-11-01,15:54,3:54 PM,71.04,71.015,71.035,71.015,71.03399999999998,1006,71459.825,17
2019-11-01,15:55,3:55 PM,71.025,71.005,71.02,71.005,71.012,854,60644.375,8
2019-11-01,15:56,3:56 PM,71.035,71.01,71.01,71.02,71.027,996,70743.37,7
2019-11-01,15:57,3:57 PM,71.01,70.965,71.01,70.965,70.986,495,35138.295,9
2019-11-01,15:58,3:58 PM,70.99,70.96,70.965,70.96,70.977,1526,108311.585,19
2019-11-01,15:59,3:59 PM,71.14,70.95,70.965,71.14,71.03,1014,72024.535,16
2019-11-04,09:30,09:30 AM,73.1,72.85,72.85,72.99,72.958,500,36479.0,5
2019-11-04,09:31,09:31 AM,73.11,72.875,72.88,73.11,72.942,478,34866.25,4
2019-11-04,09:32,09:32 AM,73.065,72.955,73.03,73.065,73.024,2009,146705.685,9
2019-11-04,09:33,09:33 AM,73.015,72.87,73.015,72.87,72.931,800,58344.5,5
2019-11-04,09:34,09:34 AM,73.075,73.005,73.075,73.02,73.033,300,21910.0,3
2019-11-04,09:35,09:35 AM,73.145,73.145,73.145,73.145,73.145,100,7314.5,1
2019-11-04,09:36,09:36 AM,73.18,72.93,73.18,72.965,73.039,564,41194.21,5
2019-11-04,09:37,09:37 AM,,,,,,0,0.0,0
2019-11-04,09:38,09:38 AM,73.25,73.125,73.125,73.25,73.188,200,14637.5,2
2019-11-04,09:39,09:39 AM,73.28,73.17,73.28,73.17,73.256,46,3369.78,2
2019-11-04,09:40,09:40 AM,73.15,72.97,72.97,73.15,73.05,610,44560.3,9
2019-11-04,09:41,09:41 AM,73.2,73.095,73.1,73.2,73.148,1900,138981.0,8
2019-11-04,09:42,09:42 AM,73.33,73.225,73.225,73.33,73.281,1070,78411.08,5
2019-11-04,09:43,09:43 AM,73.27,73.175,73.235,73.25,73.202,4289,313965.275,12
2019-11-04,09:44,09:44 AM,73.195,73.1,73.195,73.185,73.152,1556,113825.075,10
2019-11-04,09:45,09:45 AM,73.2,73.125,73.2,73.125,73.178,1300,95132.0,6
2019-11-04,09:46,09:46 AM,73.255,73.19,73.19,73.255,73.242,500,36621.0,2
2019-11-04,09:47,09:47 AM,,,,,,0,0.0,0
2019-11-04,09:48,09:48 AM,,,,,,0,0.0,0
2019-11-04,09:49,09:49 AM,,,,,,0,0.0,0
2019-11-04,09:50,09:50 AM,73.26,73.115,73.245,73.13,73.21,900,65889.0,7
2019-11-04,09:51,09:51 AM,73.095,73.05,73.095,73.05,73.074,217,15857.115,3
2019-11-04,09:52,09:52 AM,73.055,73.055,73.055,73.055,73.055,100,7305.5,1
2019-11-04,09:53,09:53 AM,73.15,73.07,73.11,73.15,73.102,411,30044.94,6
2019-11-04,09:54,09:54 AM,73.07,73.05,73.05,73.07,73.06,200,14612.0,2
2019-11-04,09:55,09:55 AM,73.12,73.07,73.12,73.07,73.071,102,7453.24,2
2019-11-04,09:56,09:56 AM,,,,,,0,0.0,0
2019-11-04,09:57,09:57 AM,73.11,73.09,73.11,73.09,73.097,3,219.29,2
2019-11-04,09:58,09:58 AM,73.21,73.21,73.21,73.21,73.21,100,7321.0,2
2019-11-04,09:59,09:59 AM,73.25,73.16,73.16,73.25,73.204,206,15080.14,5
2019-11-04,10:00,10 AM,73.28,73.255,73.28,73.255,73.265,249,18242.995,2
2019-11-04,10:01,10:01 AM,73.175,73.175,73.175,73.175,73.175,100,7317.5,1
2019-11-04,10:02,10:02 AM,73.05,73.04,73.04,73.05,73.045,200,14609.0,5
2019-11-04,10:03,10:03 AM,,,,,,0,0.0,0
2019-11-04,10:04,10:04 AM,72.99,72.945,72.945,72.99,72.99,403,29414.835,12
2019-11-04,10:05,10:05 AM,,,,,,0,0.0,0
2019-11-04,10:06,10:06 AM,73.15,73.08,73.08,73.15,73.115,200,14623.0,2
2019-11-04,10:07,10:07 AM,73.3,73.11,73.11,73.29,73.266,237,17364.07,3
2019-11-04,10:08,10:08 AM,73.35,73.22,73.325,73.255,73.289,1669,122319.68,24
2019-11-04,10:09,10:09 AM,73.31,73.31,73.31,73.31,73.31,100,7331.0,1
2019-11-04,10:10,10:10 AM,73.35,73.26,73.26,73.35,73.305,200,14661.0,2
2019-11-04,10:11,10:11 AM,73.43,73.31,73.31,73.43,73.396,700,51377.5,4
2019-11-04,10:12,10:12 AM,73.45,73.41,73.45,73.43,73.429,500,36714.5,5
2019-11-04,10:13,10:13 AM,73.48,73.445,73.465,73.445,73.464,802,58917.89,7
2019-11-04,10:14,10:14 AM,73.475,73.435,73.47,73.435,73.46,900,66114.5,8
2019-11-04,10:15,10:15 AM,73.48,73.425,73.435,73.465,73.452,1134,83294.95,12
2019-11-04,10:16,10:16 AM,73.47,73.45,73.455,73.45,73.46,658,48336.6,7
2019-11-04,10:17,10:17 AM,73.5,73.435,73.49,73.44,73.473,778,57162.22,9
2019-11-04,10:18,10:18 AM,73.495,73.435,73.44,73.495,73.47399999999998,3887,285595.065,24
2019-11-04,10:19,10:19 AM,,,,,,0,0.0,0
2019-11-04,10:20,10:20 AM,73.52,73.52,73.52,73.52,73.52,100,7352.0,1
2019-11-04,10:21,10:21 AM,73.525,73.5,73.5,73.525,73.516,400,29406.5,4
2019-11-04,10:22,10:22 AM,73.62,73.605,73.62,73.605,73.612,200,14722.5,2
2019-11-04,10:23,10:23 AM,73.635,73.635,73.635,73.635,73.635,100,7363.5,1
2019-11-04,10:24,10:24 AM,73.57,73.54,73.54,73.57,73.555,200,14711.0,2
2019-11-04,10:25,10:25 AM,,,,,,0,0.0,0
2019-11-04,10:26,10:26 AM,73.57,73.505,73.55,73.505,73.553,450,33099.055,4
2019-11-04,10:27,10:27 AM,73.53,73.5,73.5,73.53,73.506,714,52483.0,4
2019-11-04,10:28,10:28 AM,73.51,73.5,73.5,73.51,73.503,300,22051.0,3
2019-11-04,10:29,10:29 AM,73.515,73.485,73.5,73.515,73.492,646,47475.99,5
2019-11-04,10:30,10:30 AM,73.73,73.575,73.575,73.72,73.689,400,29475.5,3
2019-11-04,10:31,10:31 AM,,,,,,0,0.0,0
2019-11-04,10:32,10:32 AM,73.655,73.655,73.655,73.655,73.655,100,7365.5,1
2019-11-04,10:33,10:33 AM,73.645,73.61,73.645,73.61,73.62100000000002,922,67879.055,11
2019-11-04,10:34,10:34 AM,,,,,,0,0.0,0
2019-11-04,10:35,10:35 AM,,,,,,0,0.0,0
2019-11-04,10:36,10:36 AM,,,,,,0,0.0,0
2019-11-04,10:37,10:37 AM,,,,,,0,0.0,0
2019-11-04,10:38,10:38 AM,73.55,73.495,73.55,73.51,73.524,400,29409.5,4
2019-11-04,10:39,10:39 AM,73.46,73.46,73.46,73.46,73.46,203,14912.38,2
2019-11-04,10:40,10:40 AM,73.49,73.46,73.46,73.48,73.479,1200,88175.0,3
2019-11-04,10:41,10:41 AM,73.505,73.485,73.485,73.505,73.495,200,14699.0,2
2019-11-04,10:42,10:42 AM,73.77,73.77,73.77,73.77,73.77,100,7377.0,1
2019-11-04,10:43,10:43 AM,,,,,,0,0.0,0
2019-11-04,10:44,10:44 AM,73.825,73.825,73.825,73.825,73.825,100,7382.5,1
2019-11-04,10:45,10:45 AM,,,,,,0,0.0,0
2019-11-04,10:46,10:46 AM,73.85,73.85,73.85,73.85,73.85,100,7385.0,1
2019-11-04,10:47,10:47 AM,73.805,73.805,73.805,73.805,73.805,100,7380.5,1
2019-11-04,10:48,10:48 AM,73.76,73.76,73.76,73.76,73.76,100,7376.0,1
2019-11-04,10:49,10:49 AM,73.79,73.765,73.79,73.765,73.79,101,7452.765,2
2019-11-04,10:50,10:50 AM,,,,,,0,0.0,0
2019-11-04,10:51,10:51 AM,73.635,73.635,73.635,73.635,73.635,100,7363.5,1
2019-11-04,10:52,10:52 AM,,,,,,0,0.0,0
2019-11-04,10:53,10:53 AM,73.65,73.64,73.64,73.65,73.649,111,8175.04,2
2019-11-04,10:54,10:54 AM,73.58,73.58,73.58,73.58,73.58,100,7358.0,1
2019-11-04,10:55,10:55 AM,73.62,73.56,73.57,73.62,73.583,300,22075.0,3
2019-11-04,10:56,10:56 AM,73.62,73.62,73.62,73.62,73.62,200,14724.0,1
2019-11-04,10:57,10:57 AM,73.73,73.67,73.67,73.73,73.7,200,14740.0,2
2019-11-04,10:58,10:58 AM,,,,,,0,0.0,0
2019-11-04,10:59,10:59 AM,73.775,73.775,73.775,73.775,73.775,100,7377.5,1
2019-11-04,11:00,11 AM,73.71,73.67,73.71,73.67,73.68,850,62628.5,10
2019-11-04,11:01,11:01 AM,73.7,73.7,73.7,73.7,73.7,200,14740.0,2
2019-11-04,11:02,11:02 AM,,,,,,0,0.0,0
2019-11-04,11:03,11:03 AM,,,,,,0,0.0,0
2019-11-04,11:04,11:04 AM,,,,,,0,0.0,0
2019-11-04,11:05,11:05 AM,73.81,73.79,73.81,73.79,73.804,172,12694.25,4
2019-11-04,11:06,11:06 AM,73.835,73.81,73.825,73.81,73.82300000000002,300,22147.0,3
2019-11-04,11:07,11:07 AM,,,,,,0,0.0,0
2019-11-04,11:08,11:08 AM,73.85,73.85,73.85,73.85,73.85,200,14770.0,2
2019-11-04,11:09,11:09 AM,73.84,73.83,73.84,73.83,73.84,101,7457.83,2
2019-11-04,11:10,11:10 AM,73.84,73.83,73.84,73.83,73.837,300,22151.0,3
2019-11-04,11:11,11:11 AM,73.9,73.87,73.87,73.9,73.873,113,8347.7,2
2019-11-04,11:12,11:12 AM,73.99,73.99,73.99,73.99,73.99,100,7399.0,1
2019-11-04,11:13,11:13 AM,74.08,74.08,74.08,74.08,74.08,100,7408.0,1
2019-11-04,11:14,11:14 AM,74.14,74.13,74.13,74.13,74.135,1100,81548.5,9
2019-11-04,11:15,11:15 AM,74.19,74.165,74.165,74.19,74.17699999999998,200,14835.5,2
2019-11-04,11:16,11:16 AM,,,,,,0,0.0,0
2019-11-04,11:17,11:17 AM,,,,,,0,0.0,0
2019-11-04,11:18,11:18 AM,74.095,74.095,74.095,74.095,74.095,100,7409.5,1
2019-11-04,11:19,11:19 AM,74.035,74.035,74.035,74.035,74.035,1200,88842.0,4
2019-11-04,11:20,11:20 AM,73.985,73.88,73.985,73.88,73.915,506,37400.91,5
2019-11-04,11:21,11:21 AM,73.91,73.805,73.805,73.91,73.87899999999998,564,41667.74,5
2019-11-04,11:22,11:22 AM,73.87,73.87,73.87,73.87,73.87,400,29548.0,4
2019-11-04,11:23,11:23 AM,73.96,73.93,73.93,73.96,73.945,200,14789.0,2
2019-11-04,11:24,11:24 AM,73.93,73.91,73.91,73.93,73.915,427,31561.57,4
2019-11-04,11:25,11:25 AM,73.88,73.86,73.88,73.86,73.868,300,22160.5,3
2019-11-04,11:26,11:26 AM,,,,,,0,0.0,0
2019-11-04,11:27,11:27 AM,73.925,73.925,73.925,73.925,73.925,100,7392.5,1
2019-11-04,11:28,11:28 AM,,,,,,0,0.0,0
2019-11-04,11:29,11:29 AM,74.01,74.01,74.01,74.01,74.01,100,7401.0,1
2019-11-04,11:30,11:30 AM,,,,,,0,0.0,0
2019-11-04,11:31,11:31 AM,74.0,73.95,74.0,73.95,73.967,300,22190.0,3
2019-11-04,11:32,11:32 AM,73.91,73.91,73.91,73.91,73.91,37,2734.67,1
2019-11-04,11:33,11:33 AM,,,,,,0,0.0,0
2019-11-04,11:34,11:34 AM,73.85,73.85,73.85,73.85,73.85,49,3618.65,1
2019-11-04,11:35,11:35 AM,73.79,73.785,73.79,73.785,73.78699999999998,151,11141.79,2
2019-11-04,11:36,11:36 AM,,,,,,0,0.0,0
2019-11-04,11:37,11:37 AM,,,,,,0,0.0,0
2019-11-04,11:38,11:38 AM,73.795,73.715,73.715,73.795,73.755,200,14751.0,2
2019-11-04,11:39,11:39 AM,73.8,73.79,73.8,73.79,73.795,200,14759.0,2
2019-11-04,11:40,11:40 AM,73.84,73.8,73.8,73.84,73.813,300,22144.0,5
2019-11-04,11:41,11:41 AM,73.78,73.78,73.78,73.78,73.78,100,7378.0,1
2019-11-04,11:42,11:42 AM,73.78,73.78,73.78,73.78,73.78,100,7378.0,1
2019-11-04,11:43,11:43 AM,73.76,73.76,73.76,73.76,73.76,100,7376.0,1
2019-11-04,11:44,11:44 AM,,,,,,0,0.0,0
2019-11-04,11:45,11:45 AM,,,,,,0,0.0,0
2019-11-04,11:46,11:46 AM,73.77,73.74,73.77,73.74,73.75399999999998,215,15857.1,5
2019-11-04,11:47,11:47 AM,73.81,73.74,73.74,73.81,73.763,3,221.29,3
2019-11-04,11:48,11:48 AM,73.86,73.86,73.86,73.86,73.86,100,7386.0,1
2019-11-04,11:49,11:49 AM,,,,,,0,0.0,0
2019-11-04,11:50,11:50 AM,,,,,,0,0.0,0
2019-11-04,11:51,11:51 AM,,,,,,0,0.0,0
2019-11-04,11:52,11:52 AM,73.87,73.825,73.825,73.87,73.84,237,17500.19,3
2019-11-04,11:53,11:53 AM,,,,,,0,0.0,0
2019-11-04,11:54,11:54 AM,73.86,73.84,73.85,73.86,73.845,611,45119.46,7
2019-11-04,11:55,11:55 AM,73.8,73.8,73.8,73.8,73.8,100,7380.0,1
2019-11-04,11:56,11:56 AM,,,,,,0,0.0,0
2019-11-04,11:57,11:57 AM,73.655,73.655,73.655,73.655,73.655,3,220.965,2
2019-11-04,11:58,11:58 AM,,,,,,0,0.0,0
2019-11-04,11:59,11:59 AM,,,,,,0,0.0,0
2019-11-04,12:00,12 PM,73.735,73.725,73.735,73.725,73.725,307,22633.645,2
2019-11-04,12:01,12:01 PM,73.74,73.74,73.74,73.74,73.74,100,7374.0,1
2019-11-04,12:02,12:02 PM,73.76,73.76,73.76,73.76,73.76,100,7376.0,1
2019-11-04,12:03,12:03 PM,73.71,73.71,73.71,73.71,73.71,300,22113.0,3
2019-11-04,12:04,12:04 PM,,,,,,0,0.0,0
2019-11-04,12:05,12:05 PM,73.61,73.61,73.61,73.61,73.61,100,7361.0,1
2019-11-04,12:06,12:06 PM,73.66,73.66,73.66,73.66,73.66,65,4787.9,1
2019-11-04,12:07,12:07 PM,,,,,,0,0.0,0
2019-11-04,12:08,12:08 PM,73.83,73.77,73.77,73.83,73.8,200,14760.0,2
2019-11-04,12:09,12:09 PM,,,,,,0,0.0,0
2019-11-04,12:10,12:10 PM,73.85,73.845,73.845,73.85,73.847,200,14769.5,2
2019-11-04,12:11,12:11 PM,73.93,73.9,73.9,73.93,73.915,200,14783.0,2
2019-11-04,12:12,12:12 PM,73.92,73.865,73.92,73.865,73.899,400,29559.5,4
2019-11-04,12:13,12:13 PM,73.93,73.9,73.93,73.92,73.916,1268,93725.04,8
2019-11-04,12:14,12:14 PM,73.92,73.92,73.92,73.92,73.92,100,7392.0,1
2019-11-04,12:15,12:15 PM,73.92,73.92,73.92,73.92,73.92,100,7392.0,1
2019-11-04,12:16,12:16 PM,,,,,,0,0.0,0
2019-11-04,12:17,12:17 PM,74.08,74.08,74.08,74.08,74.08,111,8222.88,2
2019-11-04,12:18,12:18 PM,74.07,74.07,74.07,74.07,74.07,100,7407.0,1
2019-11-04,12:19,12:19 PM,74.03,74.025,74.03,74.025,74.025,337,24946.61,4
2019-11-04,12:20,12:20 PM,74.06,74.055,74.055,74.06,74.06,94,6961.635,2
2019-11-04,12:21,12:21 PM,74.02,74.02,74.02,74.02,74.02,100,7402.0,1
2019-11-04,12:22,12:22 PM,74.04,74.03,74.04,74.03,74.035,200,14807.0,2
2019-11-04,12:23,12:23 PM,,,,,,0,0.0,0
2019-11-04,12:24,12:24 PM,,,,,,0,0.0,0
2019-11-04,12:25,12:25 PM,74.12,74.12,74.12,74.12,74.12,100,7412.0,1
2019-11-04,12:26,12:26 PM,,,,,,0,0.0,0
2019-11-04,12:27,12:27 PM,,,,,,0,0.0,0
2019-11-04,12:28,12:28 PM,,,,,,0,0.0,0
2019-11-04,12:29,12:29 PM,74.04,74.02,74.02,74.04,74.03,200,14806.0,2
2019-11-04,12:30,12:30 PM,73.995,73.995,73.995,73.995,73.995,2,147.99,1
2019-11-04,12:31,12:31 PM,,,,,,0,0.0,0
2019-11-04,12:32,12:32 PM,,,,,,0,0.0,0
2019-11-04,12:33,12:33 PM,73.83,73.83,73.83,73.83,73.83,100,7383.0,1
2019-11-04,12:34,12:34 PM,,,,,,0,0.0,0
2019-11-04,12:35,12:35 PM,,,,,,0,0.0,0
2019-11-04,12:36,12:36 PM,,,,,,0,0.0,0
2019-11-04,12:37,12:37 PM,73.68,73.68,73.68,73.68,73.68,200,14736.0,4
2019-11-04,12:38,12:38 PM,,,,,,0,0.0,0
2019-11-04,12:39,12:39 PM,73.65,73.62,73.62,73.65,73.632,500,36816.0,4
2019-11-04,12:40,12:40 PM,,,,,,0,0.0,0
2019-11-04,12:41,12:41 PM,73.65,73.59,73.59,73.65,73.62,401,29521.65,4
2019-11-04,12:42,12:42 PM,73.71,73.71,73.71,73.71,73.71,1,73.71,1
2019-11-04,12:43,12:43 PM,73.76,73.76,73.76,73.76,73.76,100,7376.0,1
2019-11-04,12:44,12:44 PM,73.8,73.8,73.8,73.8,73.8,100,7380.0,1
2019-11-04,12:45,12:45 PM,,,,,,0,0.0,0
2019-11-04,12:46,12:46 PM,,,,,,0,0.0,0
2019-11-04,12:47,12:47 PM,,,,,,0,0.0,0
2019-11-04,12:48,12:48 PM,,,,,,0,0.0,0
2019-11-04,12:49,12:49 PM,,,,,,0,0.0,0
2019-11-04,12:50,12:50 PM,73.61,73.61,73.61,73.61,73.61,100,7361.0,1
2019-11-04,12:51,12:51 PM,73.58,73.58,73.58,73.58,73.58,200,14716.0,4
2019-11-04,12:52,12:52 PM,,,,,,0,0.0,0
2019-11-04,12:53,12:53 PM,73.66,73.66,73.66,73.66,73.66,2,147.32,1
2019-11-04,12:54,12:54 PM,,,,,,0,0.0,0
2019-11-04,12:55,12:55 PM,,,,,,0,0.0,0
2019-11-04,12:56,12:56 PM,,,,,,0,0.0,0
2019-11-04,12:57,12:57 PM,,,,,,0,0.0,0
2019-11-04,12:58,12:58 PM,,,,,,0,0.0,0
2019-11-04,12:59,12:59 PM,73.83,73.83,73.83,73.83,73.83,100,7383.0,2
2019-11-04,13:00,1 PM,,,,,,0,0.0,0
2019-11-04,13:01,1:01 PM,,,,,,0,0.0,0
2019-11-04,13:02,1:02 PM,,,,,,0,0.0,0
2019-11-04,13:03,1:03 PM,73.9,73.9,73.9,73.9,73.9,100,7390.0,1
2019-11-04,13:04,1:04 PM,73.95,73.92,73.95,73.92,73.935,200,14787.0,2
2019-11-04,13:05,1:05 PM,,,,,,0,0.0,0
2019-11-04,13:06,1:06 PM,73.82,73.82,73.82,73.82,73.82,1,73.82,1
2019-11-04,13:07,1:07 PM,,,,,,0,0.0,0
2019-11-04,13:08,1:08 PM,73.83,73.83,73.83,73.83,73.83,205,15135.15,3
2019-11-04,13:09,1:09 PM,73.86,73.86,73.86,73.86,73.86,100,7386.0,2
2019-11-04,13:10,1:10 PM,,,,,,0,0.0,0
2019-11-04,13:11,1:11 PM,73.935,73.935,73.935,73.935,73.935,100,7393.5,1
2019-11-04,13:12,1:12 PM,73.97,73.97,73.97,73.97,73.97,100,7397.0,1
2019-11-04,13:13,1:13 PM,,,,,,0,0.0,0
2019-11-04,13:14,1:14 PM,74.0,74.0,74.0,74.0,74.0,100,7400.0,1
2019-11-04,13:15,1:15 PM,,,,,,0,0.0,0
2019-11-04,13:16,1:16 PM,73.99,73.99,73.99,73.99,73.99,100,7399.0,2
2019-11-04,13:17,1:17 PM,,,,,,0,0.0,0
2019-11-04,13:18,1:18 PM,,,,,,0,0.0,0
2019-11-04,13:19,1:19 PM,,,,,,0,0.0,0
2019-11-04,13:20,1:20 PM,,,,,,0,0.0,0
2019-11-04,13:21,1:21 PM,73.94,73.94,73.94,73.94,73.94,118,8724.92,1
2019-11-04,13:22,1:22 PM,73.96,73.96,73.96,73.96,73.96,100,7396.0,1
2019-11-04,13:23,1:23 PM,73.99,73.99,73.99,73.99,73.99,1,73.99,1
2019-11-04,13:24,1:24 PM,73.99,73.95,73.99,73.98,73.97,401,29661.98,6
2019-11-04,13:25,1:25 PM,74.0,73.99,73.99,74.0,73.997,3,221.99,2
2019-11-04,13:26,1:26 PM,74.03,73.995,74.015,74.005,74.006,505,37373.055,8
2019-11-04,13:27,1:27 PM,74.04,74.0,74.01,74.0,74.018,344,25462.125,8
2019-11-04,13:28,1:28 PM,73.99,73.96,73.99,73.96,73.982,407,30110.84,7
2019-11-04,13:29,1:29 PM,73.99,73.97,73.97,73.97,73.986,130,9618.235,5
2019-11-04,13:30,1:30 PM,74.015,73.97,73.97,74.0,73.98100000000002,107,7915.97,5
2019-11-04,13:31,1:31 PM,74.01,73.99,73.99,74.01,73.99,251,18571.51,3
2019-11-04,13:32,1:32 PM,73.995,73.975,73.995,73.975,73.986,7,517.905,2
2019-11-04,13:33,1:33 PM,74.025,73.97,73.97,74.025,73.991,105,7769.055,4
2019-11-04,13:34,1:34 PM,74.055,74.005,74.01,74.055,74.006,104,7696.61,5
2019-11-04,13:35,1:35 PM,74.045,74.035,74.035,74.045,74.04,2,148.08,2
2019-11-04,13:36,1:36 PM,74.01,73.98,74.01,73.98,73.994,353,26119.99,5
2019-11-04,13:37,1:37 PM,74.0,73.99,73.99,74.0,73.99,203,15019.99,4
2019-11-04,13:38,1:38 PM,74.0,73.97,74.0,73.97,73.99,206,15241.88,5
2019-11-04,13:39,1:39 PM,73.98,73.96,73.98,73.96,73.97800000000002,350,25892.37,5
2019-11-04,13:40,1:40 PM,73.965,73.94,73.965,73.94,73.958,178,13164.61,8
2019-11-04,13:41,1:41 PM,73.95,73.9,73.95,73.9,73.9,101,7463.95,2
2019-11-04,13:42,1:42 PM,,,,,,0,0.0,0
2019-11-04,13:43,1:43 PM,,,,,,0,0.0,0
2019-11-04,13:44,1:44 PM,,,,,,0,0.0,0
2019-11-04,13:45,1:45 PM,,,,,,0,0.0,0
2019-11-04,13:46,1:46 PM,74.07,74.07,74.07,74.07,74.07,100,7407.0,1
2019-11-04,13:47,1:47 PM,74.1,74.1,74.1,74.1,74.1,127,9410.7,2
2019-11-04,13:48,1:48 PM,,,,,,0,0.0,0
2019-11-04,13:49,1:49 PM,74.2,74.2,74.2,74.2,74.2,6,445.2,1
2019-11-04,13:50,1:50 PM,74.2,74.18,74.2,74.18,74.19,200,14838.0,2
2019-11-04,13:51,1:51 PM,74.13,74.13,74.13,74.13,74.13,100,7413.0,1
2019-11-04,13:52,1:52 PM,74.15,74.15,74.15,74.15,74.15,100,7415.0,1
2019-11-04,13:53,1:53 PM,74.13,74.13,74.13,74.13,74.13,100,7413.0,1
2019-11-04,13:54,1:54 PM,,,,,,0,0.0,0
2019-11-04,13:55,1:55 PM,73.98,73.98,73.98,73.98,73.98,200,14796.0,2
2019-11-04,13:56,1:56 PM,74.02,73.985,73.985,74.02,73.993,128,9471.06,2
2019-11-04,13:57,1:57 PM,,,,,,0,0.0,0
2019-11-04,13:58,1:58 PM,,,,,,0,0.0,0
2019-11-04,13:59,1:59 PM,,,,,,0,0.0,0
2019-11-04,14:00,2 PM,,,,,,0,0.0,0
2019-11-04,14:01,2:01 PM,,,,,,0,0.0,0
2019-11-04,14:02,2:02 PM,,,,,,0,0.0,0
2019-11-04,14:03,2:03 PM,74.135,74.135,74.135,74.135,74.135,34,2520.59,1
2019-11-04,14:04,2:04 PM,74.16,74.16,74.16,74.16,74.16,726,53840.16,7
2019-11-04,14:05,2:05 PM,74.16,74.145,74.145,74.16,74.15,661,49012.845,6
2019-11-04,14:06,2:06 PM,74.19,74.155,74.155,74.19,74.176,287,21288.53,3
2019-11-04,14:07,2:07 PM,74.185,74.185,74.185,74.185,74.185,700,51929.5,3
2019-11-04,14:08,2:08 PM,74.2,74.2,74.2,74.2,74.2,134,9942.8,2
2019-11-04,14:09,2:09 PM,,,,,,0,0.0,0
2019-11-04,14:10,2:10 PM,74.17,74.17,74.17,74.17,74.17,213,15798.21,1
2019-11-04,14:11,2:11 PM,74.19,74.19,74.19,74.19,74.19,2,148.38,1
2019-11-04,14:12,2:12 PM,,,,,,0,0.0,0
2019-11-04,14:13,2:13 PM,,,,,,0,0.0,0
2019-11-04,14:14,2:14 PM,,,,,,0,0.0,0
2019-11-04,14:15,2:15 PM,74.15,74.15,74.15,74.15,74.15,100,7415.0,2
2019-11-04,14:16,2:16 PM,74.16,74.16,74.16,74.16,74.16,100,7416.0,1
2019-11-04,14:17,2:17 PM,74.17,74.16,74.16,74.17,74.167,300,22250.0,3
2019-11-04,14:18,2:18 PM,74.165,74.165,74.165,74.165,74.165,100,7416.5,1
2019-11-04,14:19,2:19 PM,74.16,74.155,74.16,74.155,74.158,300,22247.5,6
2019-11-04,14:20,2:20 PM,74.17,74.165,74.17,74.165,74.168,200,14833.5,2
2019-11-04,14:21,2:21 PM,,,,,,0,0.0,0
2019-11-04,14:22,2:22 PM,74.18,74.16,74.16,74.18,74.168,601,44575.18,6
2019-11-04,14:23,2:23 PM,74.17,74.14,74.17,74.14,74.16199999999998,500,37081.0,4
2019-11-04,14:24,2:24 PM,74.135,74.13,74.135,74.13,74.132,246,18236.48,4
2019-11-04,14:25,2:25 PM,74.08,74.06,74.08,74.06,74.07,200,14814.0,2
2019-11-04,14:26,2:26 PM,74.15,74.11,74.11,74.15,74.146,337,24987.07,4
2019-11-04,14:27,2:27 PM,74.19,74.19,74.19,74.19,74.19,100,7419.0,1
2019-11-04,14:28,2:28 PM,74.23,74.17,74.23,74.17,74.194,398,29529.04,4
2019-11-04,14:29,2:29 PM,74.19,74.19,74.19,74.19,74.19,136,10089.84,2
2019-11-04,14:30,2:30 PM,74.22,74.2,74.2,74.22,74.21,521,38663.64,5
2019-11-04,14:31,2:31 PM,,,,,,0,0.0,0
2019-11-04,14:32,2:32 PM,74.23,74.2,74.23,74.2,74.206,200,14841.11,3
2019-11-04,14:33,2:33 PM,74.125,74.09,74.125,74.1,74.101,1700,125972.24,9
2019-11-04,14:34,2:34 PM,74.09,74.085,74.085,74.09,74.087,300,22226.0,2
2019-11-04,14:35,2:35 PM,,,,,,0,0.0,0
2019-11-04,14:36,2:36 PM,,,,,,0,0.0,0
2019-11-04,14:37,2:37 PM,74.08,74.06,74.08,74.06,74.066,1347,99766.26,8
2019-11-04,14:38,2:38 PM,74.02,74.02,74.02,74.02,74.02,300,22206.0,4
2019-11-04,14:39,2:39 PM,73.99,73.97,73.99,73.97,73.987,1524,112756.28,4
2019-11-04,14:40,2:40 PM,73.96,73.91,73.96,73.91,73.943,300,22183.0,3
2019-11-04,14:41,2:41 PM,73.91,73.9,73.91,73.9,73.903,336,24831.4,3
2019-11-04,14:42,2:42 PM,73.9,73.88,73.895,73.88,73.885,800,59108.0,11
2019-11-04,14:43,2:43 PM,,,,,,0,0.0,0
2019-11-04,14:44,2:44 PM,73.91,73.88,73.91,73.88,73.896,531,39238.9,7
2019-11-04,14:45,2:45 PM,73.92,73.9,73.9,73.91,73.90899999999998,600,44345.5,7
2019-11-04,14:46,2:46 PM,73.9,73.9,73.9,73.9,73.9,247,18253.3,5
2019-11-04,14:47,2:47 PM,73.92,73.88,73.92,73.88,73.896,170,12562.4,2
2019-11-04,14:48,2:48 PM,73.88,73.86,73.88,73.86,73.865,400,29546.0,2
2019-11-04,14:49,2:49 PM,,,,,,0,0.0,0
2019-11-04,14:50,2:50 PM,73.77,73.75,73.77,73.75,73.76,200,14752.0,2
2019-11-04,14:51,2:51 PM,,,,,,0,0.0,0
2019-11-04,14:52,2:52 PM,73.72,73.72,73.72,73.72,73.72,200,14744.0,2
2019-11-04,14:53,2:53 PM,73.67,73.655,73.655,73.67,73.668,600,44200.5,5
2019-11-04,14:54,2:54 PM,,,,,,0,0.0,0
2019-11-04,14:55,2:55 PM,73.73,73.72,73.725,73.73,73.725,201,14818.725,3
2019-11-04,14:56,2:56 PM,73.75,73.75,73.75,73.75,73.75,110,8112.5,2
2019-11-04,14:57,2:57 PM,73.72,73.695,73.72,73.695,73.707,400,29483.0,4
2019-11-04,14:58,2:58 PM,73.7,73.7,73.7,73.7,73.7,163,12013.1,2
2019-11-04,14:59,2:59 PM,73.855,73.73,73.73,73.855,73.791,315,23244.05,6
2019-11-04,15:00,3 PM,73.87,73.855,73.855,73.87,73.859,400,29543.5,4
2019-11-04,15:01,3:01 PM,74.02,73.94,73.94,74.01,74.005,838,62016.575,8
2019-11-04,15:02,3:02 PM,74.0,74.0,74.0,74.0,74.0,300,22200.0,3
2019-11-04,15:03,3:03 PM,74.03,74.01,74.03,74.01,74.025,713,52779.685,6
2019-11-04,15:04,3:04 PM,74.08,74.04,74.04,74.08,74.054,204,15107.08,3
2019-11-04,15:05,3:05 PM,74.08,74.05,74.08,74.05,74.071,327,24221.16,4
2019-11-04,15:06,3:06 PM,,,,,,0,0.0,0
2019-11-04,15:07,3:07 PM,73.99,73.99,73.99,73.99,73.99,265,19607.35,2
2019-11-04,15:08,3:08 PM,74.05,74.04,74.04,74.05,74.042,127,9403.35,2
2019-11-04,15:09,3:09 PM,,,,,,0,0.0,0
2019-11-04,15:10,3:10 PM,74.085,74.075,74.075,74.085,74.078,301,22297.58,4
2019-11-04,15:11,3:11 PM,74.09,74.07,74.09,74.07,74.084,602,44598.68,7
2019-11-04,15:12,3:12 PM,74.125,74.08,74.08,74.125,74.1,500,37050.0,7
2019-11-04,15:13,3:13 PM,74.17,74.14,74.14,74.15,74.15,400,29660.0,4
2019-11-04,15:14,3:14 PM,74.15,74.1,74.15,74.13,74.128,416,30837.4,6
2019-11-04,15:15,3:15 PM,74.105,74.105,74.105,74.105,74.105,19,1407.995,1
2019-11-04,15:16,3:16 PM,74.18,74.15,74.15,74.18,74.15100000000002,625,46344.5,3
2019-11-04,15:17,3:17 PM,74.165,74.165,74.165,74.165,74.165,300,22249.5,2
2019-11-04,15:18,3:18 PM,74.17,74.17,74.17,74.17,74.17,100,7417.0,1
2019-11-04,15:19,3:19 PM,74.17,74.165,74.17,74.165,74.169,400,29667.5,3
2019-11-04,15:20,3:20 PM,74.12,74.12,74.12,74.12,74.12,18,1334.16,1
2019-11-04,15:21,3:21 PM,74.09,74.07,74.08,74.07,74.083,229,16965.04,3
2019-11-04,15:22,3:22 PM,,,,,,0,0.0,0
2019-11-04,15:23,3:23 PM,74.08,74.06,74.06,74.08,74.069,949,70291.92,10
2019-11-04,15:24,3:24 PM,74.18,74.14,74.14,74.18,74.16,213,15796.14,6
2019-11-04,15:25,3:25 PM,74.2,74.19,74.195,74.2,74.196,600,44517.5,5
2019-11-04,15:26,3:26 PM,74.105,74.06,74.105,74.06,74.082,200,14816.5,2
2019-11-04,15:27,3:27 PM,74.06,74.06,74.06,74.06,74.06,200,14812.0,2
2019-11-04,15:28,3:28 PM,74.04,74.03,74.03,74.03,74.033,296,21913.88,4
2019-11-04,15:29,3:29 PM,73.97,73.94,73.97,73.97,73.969,111,8210.625,4
2019-11-04,15:30,3:30 PM,,,,,,0,0.0,0
2019-11-04,15:31,3:31 PM,73.97,73.97,73.97,73.97,73.97,100,7397.0,3
2019-11-04,15:32,3:32 PM,73.98,73.98,73.98,73.98,73.98,22,1627.56,1
2019-11-04,15:33,3:33 PM,,,,,,0,0.0,0
2019-11-04,15:34,3:34 PM,73.815,73.805,73.805,73.815,73.815,103,7602.915,2
2019-11-04,15:35,3:35 PM,73.84,73.8,73.81,73.84,73.822,500,36911.0,4
2019-11-04,15:36,3:36 PM,73.87,73.805,73.84,73.87,73.83800000000002,2617,193233.22,7
2019-11-04,15:37,3:37 PM,73.79,73.77,73.79,73.775,73.778,300,22133.5,3
2019-11-04,15:38,3:38 PM,73.76,73.75,73.76,73.75,73.75,89,6563.76,2
2019-11-04,15:39,3:39 PM,,,,,,0,0.0,0
2019-11-04,15:40,3:40 PM,73.7,73.635,73.68,73.7,73.689,304,22401.54,4
2019-11-04,15:41,3:41 PM,,,,,,0,0.0,0
2019-11-04,15:42,3:42 PM,,,,,,0,0.0,0
2019-11-04,15:43,3:43 PM,73.66,73.65,73.66,73.65,73.657,144,10606.6,2
2019-11-04,15:44,3:44 PM,73.675,73.645,73.675,73.645,73.67,1207,88919.515,6
2019-11-04,15:45,3:45 PM,73.68,73.67,73.67,73.67,73.672,420,30942.405,7
2019-11-04,15:46,3:46 PM,73.7,73.675,73.675,73.7,73.687,401,29548.675,8
2019-11-04,15:47,3:47 PM,73.73,73.7,73.73,73.7,73.703,136,10023.62,4
2019-11-04,15:48,3:48 PM,73.705,73.7,73.7,73.705,73.704,120,8844.5,2
2019-11-04,15:49,3:49 PM,73.745,73.705,73.705,73.745,73.71300000000002,420,30959.4,6
2019-11-04,15:50,3:50 PM,73.75,73.7,73.75,73.7,73.711,547,40320.13,11
2019-11-04,15:51,3:51 PM,73.72,73.685,73.72,73.685,73.70100000000002,449,33091.98,7
2019-11-04,15:52,3:52 PM,73.75,73.73,73.74,73.73,73.743,454,33479.49,6
2019-11-04,15:53,3:53 PM,73.76,73.73,73.75,73.73,73.748,600,44249.0,8
2019-11-04,15:54,3:54 PM,73.74,73.715,73.725,73.715,73.73,915,67463.27,17
2019-11-04,15:55,3:55 PM,73.745,73.725,73.725,73.745,73.73,500,36865.0,5
2019-11-04,15:56,3:56 PM,73.745,73.695,73.745,73.705,73.71,2624,193413.98,27
2019-11-04,15:57,3:57 PM,73.71,73.66,73.66,73.71,73.683,1148,84588.22,17
2019-11-04,15:58,3:58 PM,73.71,73.665,73.705,73.665,73.69800000000002,3314,244234.79,32
2019-11-04,15:59,3:59 PM,73.72,73.65,73.66,73.69,73.669,1265,93191.63,20
2019-11-05,09:30,09:30 AM,74.62,74.54,74.54,74.62,74.559,435,32433.2,5
2019-11-05,09:31,09:31 AM,74.62,74.505,74.62,74.525,74.543,765,57025.3,9
2019-11-05,09:32,09:32 AM,74.265,74.265,74.265,74.265,74.265,100,7426.5,1
2019-11-05,09:33,09:33 AM,74.39,74.25,74.25,74.25,74.292,408,30311.12,5
2019-11-05,09:34,09:34 AM,74.21,73.92,74.21,73.92,74.078,330,24445.69,6
2019-11-05,09:35,09:35 AM,73.935,73.93,73.935,73.93,73.932,207,15304.01,2
2019-11-05,09:36,09:36 AM,,,,,,0,0.0,0
2019-11-05,09:37,09:37 AM,,,,,,0,0.0,0
2019-11-05,09:38,09:38 AM,74.075,74.03,74.03,74.075,74.059,310,22958.3,2
2019-11-05,09:39,09:39 AM,,,,,,0,0.0,0
2019-11-05,09:40,09:40 AM,,,,,,0,0.0,0
2019-11-05,09:41,09:41 AM,74.12,74.03,74.03,74.12,74.075,200,14815.0,2
2019-11-05,09:42,09:42 AM,74.41,74.22,74.22,74.41,74.315,200,14863.0,2
2019-11-05,09:43,09:43 AM,74.39,74.34,74.34,74.39,74.387,211,15695.74,2
2019-11-05,09:44,09:44 AM,74.52,74.46,74.46,74.52,74.493,411,30616.545,4
2019-11-05,09:45,09:45 AM,,,,,,0,0.0,0
2019-11-05,09:46,09:46 AM,74.62,74.62,74.62,74.62,74.62,100,7462.0,1
2019-11-05,09:47,09:47 AM,74.6,74.59,74.595,74.59,74.595,800,59676.0,7
2019-11-05,09:48,09:48 AM,74.69,74.63,74.63,74.69,74.66,400,29864.0,2
2019-11-05,09:49,09:49 AM,74.69,74.595,74.69,74.595,74.597,4500,335687.0,5
2019-11-05,09:50,09:50 AM,74.71,74.625,74.625,74.71,74.687,1179,88056.075,7
2019-11-05,09:51,09:51 AM,74.68,74.6,74.675,74.6,74.652,683,50987.3,6
2019-11-05,09:52,09:52 AM,74.55,74.53,74.55,74.53,74.533,117,8720.35,2
2019-11-05,09:53,09:53 AM,74.43,74.365,74.43,74.425,74.419,900,66977.5,3
2019-11-05,09:54,09:54 AM,,,,,,0,0.0,0
2019-11-05,09:55,09:55 AM,74.555,74.5,74.5,74.555,74.514,800,59611.0,3
2019-11-05,09:56,09:56 AM,,,,,,0,0.0,0
2019-11-05,09:57,09:57 AM,74.59,74.59,74.59,74.59,74.59,50,3729.5,1
2019-11-05,09:58,09:58 AM,,,,,,0,0.0,0
2019-11-05,09:59,09:59 AM,74.875,74.795,74.875,74.8,74.81,700,52367.0,3
2019-11-05,10:00,10 AM,75.0,75.0,75.0,75.0,75.0,100,7500.0,1
2019-11-05,10:01,10:01 AM,75.03,75.03,75.03,75.03,75.03,100,7503.0,1
2019-11-05,10:02,10:02 AM,74.905,74.905,74.905,74.905,74.905,100,7490.5,1
2019-11-05,10:03,10:03 AM,,,,,,0,0.0,0
2019-11-05,10:04,10:04 AM,74.935,74.8,74.935,74.85,74.884,602,45080.29,5
2019-11-05,10:05,10:05 AM,,,,,,0,0.0,0
2019-11-05,10:06,10:06 AM,74.68,74.68,74.68,74.68,74.68,300,22404.0,1
2019-11-05,10:07,10:07 AM,74.74,74.7,74.7,74.74,74.736,1000,74736.0,5
2019-11-05,10:08,10:08 AM,74.72,74.705,74.705,74.72,74.71300000000002,200,14942.5,2
2019-11-05,10:09,10:09 AM,74.765,74.765,74.765,74.765,74.765,100,7476.5,1
2019-11-05,10:10,10:10 AM,74.74,74.69,74.735,74.69,74.717,2240,167365.44,16
2019-11-05,10:11,10:11 AM,74.79,74.685,74.685,74.745,74.727,2300,171871.0,4
2019-11-05,10:12,10:12 AM,74.74,74.73,74.74,74.73,74.736,247,18459.78,2
2019-11-05,10:13,10:13 AM,74.715,74.62,74.65,74.715,74.692,700,52284.5,5
2019-11-05,10:14,10:14 AM,74.695,74.685,74.695,74.685,74.694,3292,245893.94,13
2019-11-05,10:15,10:15 AM,74.685,74.62,74.62,74.685,74.672,407,30391.61,5
2019-11-05,10:16,10:16 AM,74.665,74.625,74.625,74.665,74.65899999999998,646,48229.4,7
2019-11-05,10:17,10:17 AM,74.68,74.65,74.655,74.68,74.66,807,60250.585,7
2019-11-05,10:18,10:18 AM,74.76,74.665,74.665,74.76,74.67699999999998,2057,153609.905,12
2019-11-05,10:19,10:19 AM,74.83,74.75,74.785,74.83,74.77600000000002,1001,74850.75,10
2019-11-05,10:20,10:20 AM,74.79,74.76,74.79,74.76,74.77199999999998,1454,108718.375,11
2019-11-05,10:21,10:21 AM,74.76,74.74,74.745,74.745,74.749,901,67348.745,9
2019-11-05,10:22,10:22 AM,74.77,74.71,74.755,74.725,74.736,1500,112104.0,12
2019-11-05,10:23,10:23 AM,74.72,74.69,74.71,74.695,74.707,420,31376.8,5
2019-11-05,10:24,10:24 AM,74.655,74.61,74.655,74.62,74.634,2752,205392.83,17
2019-11-05,10:25,10:25 AM,74.6,74.56,74.585,74.6,74.58,700,52206.0,7
2019-11-05,10:26,10:26 AM,74.585,74.555,74.555,74.585,74.559,1200,89471.5,8
2019-11-05,10:27,10:27 AM,74.61,74.525,74.585,74.525,74.557,207,15433.27,4
2019-11-05,10:28,10:28 AM,74.52,74.455,74.52,74.455,74.47,2900,215962.0,17
2019-11-05,10:29,10:29 AM,74.465,74.45,74.46,74.46,74.458,1968,146533.1,17
2019-11-05,10:30,10:30 AM,74.52,74.52,74.52,74.52,74.52,100,7452.0,1
2019-11-05,10:31,10:31 AM,74.65,74.65,74.65,74.65,74.65,100,7465.0,1
2019-11-05,10:32,10:32 AM,,,,,,0,0.0,0
2019-11-05,10:33,10:33 AM,74.65,74.625,74.65,74.625,74.631,400,29852.5,3
2019-11-05,10:34,10:34 AM,74.65,74.65,74.65,74.65,74.65,100,7465.0,1
2019-11-05,10:35,10:35 AM,74.71,74.71,74.71,74.71,74.71,3,224.13,1
2019-11-05,10:36,10:36 AM,74.69,74.69,74.69,74.69,74.69,1,74.69,1
2019-11-05,10:37,10:37 AM,74.65,74.63,74.65,74.63,74.633,706,52690.78,8
2019-11-05,10:38,10:38 AM,,,,,,0,0.0,0
2019-11-05,10:39,10:39 AM,74.715,74.71,74.71,74.71,74.712,605,45201.05,7
2019-11-05,10:40,10:40 AM,74.835,74.72,74.72,74.835,74.793,500,37396.5,5
2019-11-05,10:41,10:41 AM,74.925,74.91,74.925,74.915,74.922,413,30942.655,5
2019-11-05,10:42,10:42 AM,,,,,,0,0.0,0
2019-11-05,10:43,10:43 AM,74.895,74.89,74.895,74.89,74.89399999999998,900,67405.0,9
2019-11-05,10:44,10:44 AM,74.91,74.89,74.91,74.89,74.9,200,14980.0,2
2019-11-05,10:45,10:45 AM,75.0,74.955,74.955,75.0,74.971,532,39884.56,6
2019-11-05,10:46,10:46 AM,74.985,74.97,74.985,74.98,74.977,1600,119962.5,16
2019-11-05,10:47,10:47 AM,74.935,74.91,74.935,74.915,74.916,700,52441.5,7
2019-11-05,10:48,10:48 AM,74.945,74.885,74.905,74.945,74.898,1800,134817.0,16
2019-11-05,10:49,10:49 AM,75.02,74.98,75.0,75.02,74.998,443,33224.14,6
2019-11-05,10:50,10:50 AM,75.1,75.1,75.1,75.1,75.1,38,2853.8,1
2019-11-05,10:51,10:51 AM,,,,,,0,0.0,0
2019-11-05,10:52,10:52 AM,,,,,,0,0.0,0
2019-11-05,10:53,10:53 AM,75.01,75.0,75.01,75.0,75.005,395,29626.89,3
2019-11-05,10:54,10:54 AM,,,,,,0,0.0,0
2019-11-05,10:55,10:55 AM,,,,,,0,0.0,0
2019-11-05,10:56,10:56 AM,,,,,,0,0.0,0
2019-11-05,10:57,10:57 AM,75.04,74.99,75.04,75.03,75.03699999999998,301,22585.99,4
2019-11-05,10:58,10:58 AM,75.03,74.99,74.99,75.03,75.01,200,15002.0,2
2019-11-05,10:59,10:59 AM,75.06,75.03,75.03,75.06,75.045,204,15309.12,3
2019-11-05,11:00,11 AM,75.14,75.12,75.14,75.12,75.131,310,23290.7,4
2019-11-05,11:01,11:01 AM,,,,,,0,0.0,0
2019-11-05,11:02,11:02 AM,75.25,75.2,75.21,75.245,75.222,1100,82744.0,11
2019-11-05,11:03,11:03 AM,75.25,75.215,75.25,75.23,75.238,800,60190.5,7
2019-11-05,11:04,11:04 AM,75.25,75.215,75.25,75.215,75.235,709,53341.435,5
2019-11-05,11:05,11:05 AM,75.26,75.2,75.2,75.25,75.247,1891,142291.475,17
2019-11-05,11:06,11:06 AM,75.31,75.305,75.305,75.31,75.308,300,22592.5,3
2019-11-05,11:07,11:07 AM,75.28,75.27,75.28,75.27,75.273,300,22582.0,3
2019-11-05,11:08,11:08 AM,75.275,75.18,75.275,75.18,75.256,648,48765.7,7
2019-11-05,11:09,11:09 AM,75.19,75.165,75.19,75.165,75.17,500,37585.0,4
2019-11-05,11:10,11:10 AM,75.245,75.19,75.195,75.19,75.206,408,30683.96,4
2019-11-05,11:11,11:11 AM,75.19,75.075,75.19,75.095,75.12899999999998,401,30126.63,5
2019-11-05,11:12,11:12 AM,75.19,75.13,75.13,75.19,75.15,300,22545.0,3
2019-11-05,11:13,11:13 AM,75.27,75.25,75.25,75.27,75.26,200,15052.0,2
2019-11-05,11:14,11:14 AM,75.31,75.31,75.31,75.31,75.31,200,15062.0,2
2019-11-05,11:15,11:15 AM,75.215,75.215,75.215,75.215,75.215,57,4287.255,1
2019-11-05,11:16,11:16 AM,75.075,75.075,75.075,75.075,75.075,100,7507.5,1
2019-11-05,11:17,11:17 AM,75.065,75.01,75.065,75.01,75.032,500,37516.0,5
2019-11-05,11:18,11:18 AM,75.04,74.98,75.04,75.01,75.01899999999998,1400,105026.0,7
2019-11-05,11:19,11:19 AM,75.06,75.03,75.03,75.06,75.054,500,37527.0,5
2019-11-05,11:20,11:20 AM,75.155,75.06,75.06,75.12,75.10300000000002,563,42283.06,5
2019-11-05,11:21,11:21 AM,75.14,75.08,75.14,75.08,75.101,702,52720.76,8
2019-11-05,11:22,11:22 AM,75.17,75.11,75.11,75.17,75.155,429,32241.49,5
2019-11-05,11:23,11:23 AM,75.18,75.14,75.17,75.175,75.167,899,67575.35,4
2019-11-05,11:24,11:24 AM,75.25,75.2,75.2,75.25,75.21300000000002,138,10379.475,3
2019-11-05,11:25,11:25 AM,,,,,,0,0.0,0
2019-11-05,11:26,11:26 AM,75.195,75.195,75.195,75.195,75.195,100,7519.5,1
2019-11-05,11:27,11:27 AM,75.22,75.18,75.18,75.22,75.2,200,15040.0,2
2019-11-05,11:28,11:28 AM,75.16,75.125,75.16,75.125,75.14699999999998,800,60118.0,6
2019-11-05,11:29,11:29 AM,75.125,75.125,75.125,75.125,75.125,100,7512.5,1
2019-11-05,11:30,11:30 AM,75.225,75.155,75.155,75.21,75.197,300,22559.0,3
2019-11-05,11:31,11:31 AM,75.15,75.06,75.15,75.06,75.127,201,15100.56,3
2019-11-05,11:32,11:32 AM,75.06,75.005,75.005,75.02,75.041,401,30091.52,4
2019-11-05,11:33,11:33 AM,75.0,75.0,75.0,75.0,75.0,200,15000.0,2
2019-11-05,11:34,11:34 AM,74.95,74.91,74.93,74.91,74.939,624,46761.84,4
2019-11-05,11:35,11:35 AM,75.02,74.86,74.86,75.02,74.96,853,63940.47,9
2019-11-05,11:36,11:36 AM,75.04,74.97,75.04,74.97,75.012,2700,202533.0,18
2019-11-05,11:37,11:37 AM,74.78,74.78,74.78,74.78,74.78,1,74.78,1
2019-11-05,11:38,11:38 AM,74.79,74.78,74.78,74.79,74.781,1023,76500.94,2
2019-11-05,11:39,11:39 AM,,,,,,0,0.0,0
2019-11-05,11:40,11:40 AM,74.71,74.69,74.69,74.71,74.7,200,14940.0,2
2019-11-05,11:41,11:41 AM,74.765,74.765,74.765,74.765,74.765,100,7476.5,1
2019-11-05,11:42,11:42 AM,74.73,74.71,74.73,74.71,74.71300000000002,600,44828.0,2
2019-11-05,11:43,11:43 AM,74.71,74.7,74.7,74.71,74.705,200,14941.0,2
2019-11-05,11:44,11:44 AM,74.7,74.7,74.7,74.7,74.7,101,7544.7,1
2019-11-05,11:45,11:45 AM,74.655,74.62,74.62,74.655,74.638,200,14927.5,3
2019-11-05,11:46,11:46 AM,74.62,74.62,74.62,74.62,74.62,200,14924.0,1
2019-11-05,11:47,11:47 AM,74.62,74.62,74.62,74.62,74.62,100,7462.0,1
2019-11-05,11:48,11:48 AM,74.54,74.54,74.54,74.54,74.54,100,7454.0,1
2019-11-05,11:49,11:49 AM,74.44,74.44,74.44,74.44,74.44,100,7444.0,1
2019-11-05,11:50,11:50 AM,74.27,74.27,74.27,74.27,74.27,768,57039.36,1
2019-11-05,11:51,11:51 AM,74.215,74.175,74.18,74.215,74.18,613,45472.295,3
2019-11-05,11:52,11:52 AM,74.17,74.14,74.14,74.17,74.146,7,519.025,4
2019-11-05,11:53,11:53 AM,74.105,74.07,74.1,74.105,74.071,102,7555.205,6
2019-11-05,11:54,11:54 AM,74.11,74.08,74.11,74.08,74.095,2,148.19,2
2019-11-05,11:55,11:55 AM,74.095,74.045,74.095,74.045,74.055,103,7627.695,4
2019-11-05,11:56,11:56 AM,74.07,74.02,74.07,74.02,74.069,56,4147.87,4
2019-11-05,11:57,11:57 AM,74.12,74.085,74.12,74.115,74.12,103,7634.32,4
2019-11-05,11:58,11:58 AM,74.255,74.205,74.205,74.255,74.24,102,7572.46,3
2019-11-05,11:59,11:59 AM,74.265,74.225,74.265,74.225,74.24,502,37268.49,3
2019-11-05,12:00,12 PM,74.28,74.24,74.255,74.28,74.255,202,14999.52,4
2019-11-05,12:01,12:01 PM,74.23,74.19,74.23,74.195,74.193,451,33460.985,7
2019-11-05,12:02,12:02 PM,74.225,74.21,74.21,74.225,74.218,3,222.655,3
2019-11-05,12:03,12:03 PM,74.205,74.17,74.185,74.17,74.187,3,222.56,3
2019-11-05,12:04,12:04 PM,74.205,74.165,74.165,74.185,74.178,202,14983.89,6
2019-11-05,12:05,12:05 PM,74.2,74.185,74.2,74.185,74.192,2,148.385,2
2019-11-05,12:06,12:06 PM,74.145,74.13,74.14,74.14,74.132,603,44701.91,5
2019-11-05,12:07,12:07 PM,74.14,74.13,74.13,74.14,74.135,202,14975.27,5
2019-11-05,12:08,12:08 PM,74.18,74.14,74.14,74.18,74.143,302,22391.325,5
2019-11-05,12:09,12:09 PM,74.195,74.12,74.195,74.12,74.157,201,14905.635,3
2019-11-05,12:10,12:10 PM,74.11,74.08,74.105,74.11,74.087,903,66900.785,6
2019-11-05,12:11,12:11 PM,74.11,74.11,74.11,74.11,74.11,1,74.11,1
2019-11-05,12:12,12:12 PM,74.14,74.13,74.13,74.14,74.14,101,7488.13,2
2019-11-05,12:13,12:13 PM,74.16,74.09,74.16,74.09,74.093,105,7779.74,4
2019-11-05,12:14,12:14 PM,74.08,74.08,74.08,74.08,74.08,100,7408.0,1
2019-11-05,12:15,12:15 PM,74.09,74.09,74.09,74.09,74.09,1,74.09,1
2019-11-05,12:16,12:16 PM,74.105,74.105,74.105,74.105,74.105,2,148.21,1
2019-11-05,12:17,12:17 PM,74.165,74.16,74.165,74.16,74.165,105,7787.32,4
2019-11-05,12:18,12:18 PM,74.165,74.14,74.15,74.14,74.155,104,7712.095,5
2019-11-05,12:19,12:19 PM,74.15,74.13,74.15,74.14,74.14,3,222.42,3
2019-11-05,12:20,12:20 PM,74.16,74.13,74.145,74.13,74.141,4,296.565,4
2019-11-05,12:21,12:21 PM,74.11,74.055,74.11,74.055,74.098,138,10225.565,4
2019-11-05,12:22,12:22 PM,74.08,74.045,74.08,74.06,74.045,103,7626.685,4
2019-11-05,12:23,12:23 PM,74.095,74.06,74.06,74.095,74.08,502,37188.155,3
2019-11-05,12:24,12:24 PM,74.07,74.06,74.07,74.06,74.07,41,3036.86,2
2019-11-05,12:25,12:25 PM,74.04,74.025,74.03,74.04,74.035,204,15103.135,6
2019-11-05,12:26,12:26 PM,74.035,73.97,74.035,73.97,74.02,102,7550.005,3
2019-11-05,12:27,12:27 PM,74.01,73.97,74.01,73.97,73.97800000000002,501,37062.97,3
2019-11-05,12:28,12:28 PM,73.955,73.905,73.955,73.905,73.906,102,7538.37,3
2019-11-05,12:29,12:29 PM,73.9,73.81,73.9,73.81,73.884,103,7610.075,4
2019-11-05,12:30,12:30 PM,73.88,73.845,73.85,73.88,73.858,3,221.575,3
2019-11-05,12:31,12:31 PM,73.88,73.805,73.88,73.805,73.869,702,51856.155,4
2019-11-05,12:32,12:32 PM,73.79,73.775,73.775,73.775,73.79,103,7600.325,4
2019-11-05,12:33,12:33 PM,73.78,73.65,73.78,73.65,73.692,221,16285.855,5
2019-11-05,12:34,12:34 PM,73.71,73.675,73.675,73.71,73.69,103,7590.08,4
2019-11-05,12:35,12:35 PM,73.74,73.725,73.74,73.725,73.733,2,147.465,2
2019-11-05,12:36,12:36 PM,73.77,73.71,73.77,73.71,73.74,2,147.48,2
2019-11-05,12:37,12:37 PM,73.745,73.745,73.745,73.745,73.745,1,73.745,1
2019-11-05,12:38,12:38 PM,73.715,73.69,73.715,73.69,73.692,12,884.305,3
2019-11-05,12:39,12:39 PM,73.715,73.65,73.715,73.65,73.68,3,221.04,3
2019-11-05,12:40,12:40 PM,73.615,73.575,73.615,73.575,73.595,2,147.19,2
2019-11-05,12:41,12:41 PM,73.64,73.625,73.64,73.625,73.632,2,147.265,2
2019-11-05,12:42,12:42 PM,73.64,73.61,73.62,73.625,73.624,371,27314.53,5
2019-11-05,12:43,12:43 PM,73.655,73.63,73.63,73.655,73.635,102,7510.785,3
2019-11-05,12:44,12:44 PM,73.7,73.68,73.7,73.68,73.682,302,22251.88,7
2019-11-05,12:45,12:45 PM,73.7,73.68,73.685,73.685,73.685,205,15105.435,7
2019-11-05,12:46,12:46 PM,73.69,73.635,73.69,73.65,73.656,1087,80063.81,12
2019-11-05,12:47,12:47 PM,73.72,73.64,73.64,73.72,73.64699999999998,22,1620.24,3
2019-11-05,12:48,12:48 PM,73.72,73.705,73.705,73.72,73.71300000000002,2,147.425,2
2019-11-05,12:49,12:49 PM,73.745,73.67,73.67,73.745,73.718,301,22189.185,4
2019-11-05,12:50,12:50 PM,73.83,73.785,73.8,73.8,73.80199999999998,317,23395.115,7
2019-11-05,12:51,12:51 PM,73.815,73.815,73.815,73.815,73.815,201,14836.815,3
2019-11-05,12:52,12:52 PM,73.83,73.79,73.83,73.79,73.82,203,14985.45,5
2019-11-05,12:53,12:53 PM,73.835,73.795,73.8,73.835,73.795,102,7527.135,3
2019-11-05,12:54,12:54 PM,73.83,73.81,73.83,73.81,73.82,202,14911.66,4
2019-11-05,12:55,12:55 PM,73.8,73.755,73.8,73.8,73.77199999999998,402,29656.555,6
2019-11-05,12:56,12:56 PM,73.82,73.75,73.82,73.75,73.795,402,29665.525,6
2019-11-05,12:57,12:57 PM,73.765,73.71,73.71,73.76,73.76,203,14973.235,5
2019-11-05,12:58,12:58 PM,73.755,73.71,73.755,73.71,73.71,101,7444.755,2
2019-11-05,12:59,12:59 PM,73.725,73.695,73.72,73.695,73.72,109,8035.495,4
2019-11-05,13:00,1 PM,73.68,73.66,73.66,73.675,73.68,103,7589.015,4
2019-11-05,13:01,1:01 PM,73.67,73.645,73.67,73.645,73.657,2,147.315,2
2019-11-05,13:02,1:02 PM,73.68,73.64,73.64,73.68,73.67,502,36982.28,7
2019-11-05,13:03,1:03 PM,73.69,73.69,73.69,73.69,73.69,101,7442.69,3
2019-11-05,13:04,1:04 PM,73.735,73.71,73.71,73.735,73.722,2,147.445,2
2019-11-05,13:05,1:05 PM,73.815,73.76,73.76,73.815,73.77,203,14975.355,5
2019-11-05,13:06,1:06 PM,73.82,73.77,73.82,73.77,73.82,101,7455.77,2
2019-11-05,13:07,1:07 PM,73.76,73.73,73.76,73.73,73.738,202,14895.0,4
2019-11-05,13:08,1:08 PM,73.74,73.67,73.705,73.74,73.704,653,48128.9,8
2019-11-05,13:09,1:09 PM,73.73,73.715,73.73,73.715,73.73,102,7520.445,3
2019-11-05,13:10,1:10 PM,73.775,73.75,73.755,73.775,73.75,102,7522.53,3
2019-11-05,13:11,1:11 PM,73.795,73.75,73.75,73.785,73.77199999999998,502,37033.58,5
2019-11-05,13:12,1:12 PM,73.785,73.77,73.785,73.77,73.778,2,147.555,2
2019-11-05,13:13,1:13 PM,73.76,73.755,73.76,73.755,73.76,101,7449.755,2
2019-11-05,13:14,1:14 PM,73.825,73.815,73.815,73.825,73.82,2,147.64,2
2019-11-05,13:15,1:15 PM,73.795,73.795,73.795,73.795,73.795,1,73.795,1
2019-11-05,13:16,1:16 PM,73.8,73.71,73.8,73.71,73.714,107,7887.38,6
2019-11-05,13:17,1:17 PM,73.69,73.675,73.69,73.69,73.69,201,14811.675,3
2019-11-05,13:18,1:18 PM,73.69,73.685,73.685,73.69,73.689,5,368.445,3
2019-11-05,13:19,1:19 PM,73.73,73.73,73.73,73.73,73.73,101,7446.73,2
2019-11-05,13:20,1:20 PM,73.735,73.735,73.735,73.735,73.735,4,294.94,4
2019-11-05,13:21,1:21 PM,73.7,73.7,73.7,73.7,73.7,2,147.4,2
2019-11-05,13:22,1:22 PM,73.66,73.66,73.66,73.66,73.66,1,73.66,1
2019-11-05,13:23,1:23 PM,73.675,73.66,73.66,73.66,73.675,102,7514.82,3
2019-11-05,13:24,1:24 PM,73.6,73.595,73.595,73.6,73.59899999999998,6,441.595,2
2019-11-05,13:25,1:25 PM,73.62,73.565,73.565,73.62,73.602,602,44308.135,8
2019-11-05,13:26,1:26 PM,73.625,73.605,73.625,73.605,73.615,2,147.23,2
2019-11-05,13:27,1:27 PM,73.65,73.645,73.645,73.65,73.645,102,7511.795,3
2019-11-05,13:28,1:28 PM,73.69,73.66,73.675,73.68,73.67699999999998,974,71761.045,7
2019-11-05,13:29,1:29 PM,73.71,73.67,73.71,73.67,73.692,245,18054.59,8
2019-11-05,13:30,1:30 PM,73.665,73.645,73.665,73.645,73.65,202,14877.31,4
2019-11-05,13:31,1:31 PM,73.67,73.65,73.67,73.65,73.66,2,147.32,2
2019-11-05,13:32,1:32 PM,73.83,73.72,73.72,73.83,73.721,201,14817.83,2
2019-11-05,13:33,1:33 PM,73.905,73.885,73.885,73.905,73.885,103,7610.175,4
2019-11-05,13:34,1:34 PM,73.96,73.9,73.9,73.96,73.94,1009,74605.62,7
2019-11-05,13:35,1:35 PM,74.0,73.93,74.0,73.93,73.999,102,7547.93,4
2019-11-05,13:36,1:36 PM,73.98,73.95,73.95,73.96,73.95100000000002,115,8504.42,3
2019-11-05,13:37,1:37 PM,73.915,73.88,73.915,73.88,73.89699999999998,2,147.795,2
2019-11-05,13:38,1:38 PM,73.89,73.855,73.89,73.855,73.87,102,7534.745,3
2019-11-05,13:39,1:39 PM,73.88,73.78,73.88,73.78,73.87899999999998,102,7535.63,3
2019-11-05,13:40,1:40 PM,73.78,73.745,73.78,73.745,73.771,175,12909.985,3
2019-11-05,13:41,1:41 PM,73.74,73.72,73.74,73.72,73.738,12,884.855,3
2019-11-05,13:42,1:42 PM,73.72,73.72,73.72,73.72,73.72,301,22189.72,7
2019-11-05,13:43,1:43 PM,73.695,73.68,73.68,73.695,73.688,2,147.375,2
2019-11-05,13:44,1:44 PM,73.69,73.66,73.69,73.69,73.69,198,14590.59,4
2019-11-05,13:45,1:45 PM,73.8,73.7,73.7,73.8,73.715,200,14743.06,4
2019-11-05,13:46,1:46 PM,73.79,73.79,73.79,73.79,73.79,100,7379.0,1
2019-11-05,13:47,1:47 PM,73.78,73.75,73.78,73.75,73.75,101,7448.78,2
2019-11-05,13:48,1:48 PM,73.745,73.745,73.745,73.745,73.745,1,73.745,1
2019-11-05,13:49,1:49 PM,73.68,73.665,73.665,73.68,73.672,337,24827.66,4
2019-11-05,13:50,1:50 PM,73.71,73.69,73.695,73.705,73.695,302,22255.905,5
2019-11-05,13:51,1:51 PM,73.72,73.71,73.71,73.72,73.71,22,1621.63,2
2019-11-05,13:52,1:52 PM,73.68,73.665,73.68,73.665,73.68,101,7441.665,2
2019-11-05,13:53,1:53 PM,73.72,73.72,73.72,73.72,73.72,1,73.72,1
2019-11-05,13:54,1:54 PM,73.67,73.67,73.67,73.67,73.67,1,73.67,1
2019-11-05,13:55,1:55 PM,73.6,73.6,73.6,73.6,73.6,100,7360.0,1
2019-11-05,13:56,1:56 PM,73.61,73.61,73.61,73.61,73.61,1,73.61,1
2019-11-05,13:57,1:57 PM,73.64,73.63,73.64,73.63,73.64,101,7437.63,2
2019-11-05,13:58,1:58 PM,73.68,73.655,73.68,73.655,73.672,3,221.015,3
2019-11-05,13:59,1:59 PM,73.655,73.625,73.64,73.655,73.645,222,16349.295,5
2019-11-05,14:00,2 PM,,,,,,0,0.0,0
2019-11-05,14:01,2:01 PM,73.565,73.565,73.565,73.565,73.565,231,16993.515,2
2019-11-05,14:02,2:02 PM,73.6,73.56,73.56,73.58,73.578,1338,98447.73,6
2019-11-05,14:03,2:03 PM,73.6,73.59,73.6,73.59,73.595,807,59391.2,5
2019-11-05,14:04,2:04 PM,73.695,73.58,73.595,73.695,73.605,1001,73678.635,8
2019-11-05,14:05,2:05 PM,73.73,73.7,73.7,73.73,73.712,300,22113.5,3
2019-11-05,14:06,2:06 PM,73.76,73.75,73.75,73.76,73.755,200,14751.0,2
2019-11-05,14:07,2:07 PM,73.78,73.74,73.74,73.78,73.753,317,23379.58,4
2019-11-05,14:08,2:08 PM,73.75,73.75,73.75,73.75,73.75,100,7375.0,1
2019-11-05,14:09,2:09 PM,73.69,73.69,73.69,73.69,73.69,100,7369.0,1
2019-11-05,14:10,2:10 PM,73.73,73.72,73.72,73.73,73.725,200,14745.0,5
2019-11-05,14:11,2:11 PM,73.72,73.7,73.72,73.7,73.71,200,14742.0,3
2019-11-05,14:12,2:12 PM,73.715,73.67,73.67,73.71,73.69800000000002,305,22477.95,4
2019-11-05,14:13,2:13 PM,73.79,73.785,73.79,73.785,73.78699999999998,200,14757.5,2
2019-11-05,14:14,2:14 PM,73.855,73.82,73.82,73.84,73.84100000000002,1300,95993.0,10
2019-11-05,14:15,2:15 PM,,,,,,0,0.0,0
2019-11-05,14:16,2:16 PM,,,,,,0,0.0,0
2019-11-05,14:17,2:17 PM,73.745,73.745,73.745,73.745,73.745,100,7374.5,1
2019-11-05,14:18,2:18 PM,73.74,73.74,73.74,73.74,73.74,85,6267.9,1
2019-11-05,14:19,2:19 PM,73.81,73.81,73.81,73.81,73.81,100,7381.0,1
2019-11-05,14:20,2:20 PM,73.79,73.79,73.79,73.79,73.79,100,7379.0,1
2019-11-05,14:21,2:21 PM,73.745,73.745,73.745,73.745,73.745,1000,73745.0,1
2019-11-05,14:22,2:22 PM,73.76,73.75,73.76,73.75,73.753,300,22126.0,3
2019-11-05,14:23,2:23 PM,,,,,,0,0.0,0
2019-11-05,14:24,2:24 PM,73.69,73.69,73.69,73.69,73.69,100,7369.0,1
2019-11-05,14:25,2:25 PM,,,,,,0,0.0,0
2019-11-05,14:26,2:26 PM,73.73,73.73,73.73,73.73,73.73,270,19907.1,3
2019-11-05,14:27,2:27 PM,73.775,73.775,73.775,73.775,73.775,100,7377.5,1
2019-11-05,14:28,2:28 PM,,,,,,0,0.0,0
2019-11-05,14:29,2:29 PM,73.7,73.7,73.7,73.7,73.7,300,22110.0,2
2019-11-05,14:30,2:30 PM,73.79,73.77,73.79,73.77,73.777,300,22133.0,5
2019-11-05,14:31,2:31 PM,73.72,73.72,73.72,73.72,73.72,200,14744.0,2
2019-11-05,14:32,2:32 PM,73.67,73.65,73.65,73.66,73.66,765,56350.25,10
2019-11-05,14:33,2:33 PM,73.71,73.69,73.71,73.69,73.7,300,22110.0,3
2019-11-05,14:34,2:34 PM,73.69,73.66,73.69,73.66,73.68,318,23430.42,3
2019-11-05,14:35,2:35 PM,73.65,73.63,73.65,73.63,73.637,300,22091.0,4
2019-11-05,14:36,2:36 PM,73.66,73.66,73.66,73.66,73.66,200,14732.0,1
2019-11-05,14:37,2:37 PM,73.63,73.63,73.63,73.63,73.63,100,7363.0,1
2019-11-05,14:38,2:38 PM,73.59,73.59,73.59,73.59,73.59,100,7359.0,1
2019-11-05,14:39,2:39 PM,73.66,73.61,73.62,73.66,73.633,8514,626908.04,12
2019-11-05,14:40,2:40 PM,73.665,73.62,73.64,73.66,73.646,1385,102000.0,11
2019-11-05,14:41,2:41 PM,73.66,73.64,73.65,73.66,73.656,1583,116597.035,7
2019-11-05,14:42,2:42 PM,,,,,,0,0.0,0
2019-11-05,14:43,2:43 PM,73.58,73.58,73.58,73.58,73.58,100,7358.0,1
2019-11-05,14:44,2:44 PM,,,,,,0,0.0,0
2019-11-05,14:45,2:45 PM,73.49,73.49,73.49,73.49,73.49,2,146.98,1
2019-11-05,14:46,2:46 PM,73.49,73.48,73.48,73.49,73.48899999999998,111,8157.28,2
2019-11-05,14:47,2:47 PM,73.51,73.51,73.51,73.51,73.51,100,7351.0,1
2019-11-05,14:48,2:48 PM,73.555,73.55,73.55,73.555,73.55199999999998,200,14710.5,2
2019-11-05,14:49,2:49 PM,73.62,73.62,73.62,73.62,73.62,301,22159.62,2
2019-11-05,14:50,2:50 PM,73.61,73.585,73.61,73.585,73.593,600,44156.0,5
2019-11-05,14:51,2:51 PM,73.64,73.56,73.61,73.56,73.605,1509,111070.17,15
2019-11-05,14:52,2:52 PM,73.59,73.525,73.555,73.565,73.556,1400,102978.0,14
2019-11-05,14:53,2:53 PM,73.6,73.57,73.59,73.595,73.582,1414,104045.12,14
2019-11-05,14:54,2:54 PM,,,,,,0,0.0,0
2019-11-05,14:55,2:55 PM,73.6,73.52,73.6,73.52,73.562,1004,73856.28,8
2019-11-05,14:56,2:56 PM,73.51,73.51,73.51,73.51,73.51,100,7351.0,1
2019-11-05,14:57,2:57 PM,73.51,73.51,73.51,73.51,73.51,19,1396.69,1
2019-11-05,14:58,2:58 PM,73.535,73.535,73.535,73.535,73.535,100,7353.5,1
2019-11-05,14:59,2:59 PM,73.495,73.49,73.49,73.49,73.492,300,22047.5,3
2019-11-05,15:00,3 PM,73.505,73.475,73.505,73.475,73.485,900,66136.5,4
2019-11-05,15:01,3:01 PM,73.47,73.455,73.455,73.47,73.46300000000002,200,14692.5,2
2019-11-05,15:02,3:02 PM,73.45,73.45,73.45,73.45,73.45,300,22035.0,3
2019-11-05,15:03,3:03 PM,73.49,73.445,73.45,73.49,73.457,1902,139715.46,9
2019-11-05,15:04,3:04 PM,73.51,73.48,73.48,73.51,73.492,633,46520.365,6
2019-11-05,15:05,3:05 PM,73.5,73.465,73.5,73.465,73.47399999999998,400,29389.5,4
2019-11-05,15:06,3:06 PM,73.49,73.45,73.45,73.49,73.472,599,44010.01,5
2019-11-05,15:07,3:07 PM,73.51,73.45,73.45,73.5,73.476,651,47832.95,11
2019-11-05,15:08,3:08 PM,73.5,73.475,73.5,73.48,73.487,204,14991.42,4
2019-11-05,15:09,3:09 PM,73.52,73.5,73.5,73.52,73.51,200,14702.0,2
2019-11-05,15:10,3:10 PM,73.52,73.51,73.52,73.51,73.518,499,36685.48,3
2019-11-05,15:11,3:11 PM,,,,,,0,0.0,0
2019-11-05,15:12,3:12 PM,73.575,73.575,73.575,73.575,73.575,100,7357.5,1
2019-11-05,15:13,3:13 PM,73.595,73.59,73.595,73.59,73.593,165,12142.85,2
2019-11-05,15:14,3:14 PM,73.605,73.53,73.605,73.53,73.558,418,30747.165,5
2019-11-05,15:15,3:15 PM,73.53,73.53,73.53,73.53,73.53,100,7353.0,1
2019-11-05,15:16,3:16 PM,73.555,73.555,73.555,73.555,73.555,100,7355.5,1
2019-11-05,15:17,3:17 PM,73.515,73.5,73.51,73.515,73.51100000000002,224,16466.54,4
2019-11-05,15:18,3:18 PM,73.495,73.47,73.495,73.47,73.473,207,15208.965,3
2019-11-05,15:19,3:19 PM,73.5,73.49,73.49,73.5,73.5,102,7496.98,2
2019-11-05,15:20,3:20 PM,73.5,73.5,73.5,73.5,73.5,100,7350.0,1
2019-11-05,15:21,3:21 PM,73.515,73.49,73.49,73.515,73.502,200,14700.5,2
2019-11-05,15:22,3:22 PM,73.53,73.53,73.53,73.53,73.53,100,7353.0,1
2019-11-05,15:23,3:23 PM,,,,,,0,0.0,0
2019-11-05,15:24,3:24 PM,73.55,73.54,73.55,73.54,73.545,200,14709.0,2
2019-11-05,15:25,3:25 PM,73.57,73.55,73.55,73.57,73.567,600,44140.0,2
2019-11-05,15:26,3:26 PM,73.61,73.57,73.57,73.61,73.58800000000002,600,44153.0,5
2019-11-05,15:27,3:27 PM,73.61,73.585,73.595,73.59,73.601,418,30765.16,6
2019-11-05,15:28,3:28 PM,73.62,73.58,73.595,73.58,73.604,1269,93403.76,7
2019-11-05,15:29,3:29 PM,73.58,73.57,73.57,73.57,73.575,700,51502.5,7
2019-11-05,15:30,3:30 PM,73.62,73.58,73.58,73.62,73.605,400,29442.0,6
2019-11-05,15:31,3:31 PM,73.68,73.65,73.66,73.68,73.666,500,36833.0,6
2019-11-05,15:32,3:32 PM,73.63,73.62,73.63,73.62,73.62899999999998,900,66266.0,2
2019-11-05,15:33,3:33 PM,73.66,73.63,73.63,73.66,73.642,168,12371.88,4
2019-11-05,15:34,3:34 PM,73.705,73.69,73.69,73.695,73.697,857,63157.95,10
2019-11-05,15:35,3:35 PM,73.7,73.69,73.69,73.7,73.697,1603,118135.59,20
2019-11-05,15:36,3:36 PM,73.7,73.695,73.7,73.7,73.697,1142,84161.9,13
2019-11-05,15:37,3:37 PM,73.765,73.71,73.71,73.755,73.75,1266,93367.17,13
2019-11-05,15:38,3:38 PM,73.78,73.76,73.76,73.77,73.771,344,25377.37,4
2019-11-05,15:39,3:39 PM,73.825,73.8,73.8,73.825,73.816,788,58167.4,7
2019-11-05,15:40,3:40 PM,73.89,73.85,73.85,73.875,73.874,900,66487.0,8
2019-11-05,15:41,3:41 PM,73.925,73.9,73.92,73.925,73.914,899,66448.83,6
2019-11-05,15:42,3:42 PM,73.94,73.93,73.94,73.935,73.936,1501,110977.44,9
2019-11-05,15:43,3:43 PM,73.985,73.94,73.95,73.97,73.975,1080,79893.415,19
2019-11-05,15:44,3:44 PM,74.01,73.975,73.98,73.975,73.98,1311,96987.5,10
2019-11-05,15:45,3:45 PM,74.01,73.97,73.98,74.0,73.995,1386,102556.78,11
2019-11-05,15:46,3:46 PM,74.05,74.02,74.05,74.025,74.039,512,37907.85,5
2019-11-05,15:47,3:47 PM,74.035,73.99,74.035,73.99,74.018,936,69280.58,9
2019-11-05,15:48,3:48 PM,73.97,73.955,73.955,73.955,73.96,412,30471.52,7
2019-11-05,15:49,3:49 PM,74.02,73.96,73.96,73.995,74.009,1257,93028.96,9
2019-11-05,15:50,3:50 PM,74.09,74.005,74.005,74.035,74.042,4186,309939.03,17
2019-11-05,15:51,3:51 PM,74.035,74.005,74.005,74.03,74.02600000000002,1278,94605.135,14
2019-11-05,15:52,3:52 PM,74.035,73.975,74.025,74.025,74.008,2593,191903.065,26
2019-11-05,15:53,3:53 PM,74.025,73.935,74.025,73.935,73.98100000000002,2426,179479.02,17
2019-11-05,15:54,3:54 PM,73.99,73.93,73.95,73.945,73.972,1935,143135.545,19
2019-11-05,15:55,3:55 PM,73.925,73.87,73.91,73.925,73.9,4847,358191.72,25
2019-11-05,15:56,3:56 PM,73.98,73.885,73.915,73.98,73.936,2639,195118.62,23
2019-11-05,15:57,3:57 PM,73.975,73.945,73.975,73.945,73.964,2381,176107.59,31
2019-11-05,15:58,3:58 PM,74.02,73.95,73.95,73.985,73.98100000000002,1730,127986.52,18
2019-11-05,15:59,3:59 PM,74.01,73.95,74.0,74.005,73.98899999999998,2977,220263.945,33
2019-11-06,09:30,09:30 AM,73.44,73.125,73.44,73.13,73.32,3500,256621.5,10
2019-11-06,09:31,09:31 AM,72.69,72.33,72.61,72.33,72.479,691,50083.13,8
2019-11-06,09:32,09:32 AM,72.13,71.83,72.13,71.83,72.023,300,21607.0,3
2019-11-06,09:33,09:33 AM,72.44,71.69,71.69,72.44,71.925,1300,93502.5,13
2019-11-06,09:34,09:34 AM,72.32,71.85,72.32,71.85,72.236,323,23332.07,5
2019-11-06,09:35,09:35 AM,71.345,71.2,71.29,71.2,71.28699999999998,900,64158.5,8
2019-11-06,09:36,09:36 AM,71.17,71.05,71.15,71.065,71.119,1300,92455.0,10
2019-11-06,09:37,09:37 AM,71.13,70.965,71.13,71.03,71.04899999999998,852,60533.68,9
2019-11-06,09:38,09:38 AM,71.14,70.95,70.95,71.14,71.08,600,42648.0,6
2019-11-06,09:39,09:39 AM,71.17,71.08,71.09,71.15,71.118,700,49782.5,7
2019-11-06,09:40,09:40 AM,71.065,71.065,71.065,71.065,71.065,100,7106.5,1
2019-11-06,09:41,09:41 AM,71.23,71.23,71.23,71.23,71.23,70,4986.1,1
2019-11-06,09:42,09:42 AM,71.39,71.35,71.35,71.39,71.373,869,62023.18,14
2019-11-06,09:43,09:43 AM,71.72,71.55,71.55,71.72,71.652,674,48293.28,7
2019-11-06,09:44,09:44 AM,71.9,71.9,71.9,71.9,71.9,10,719.0,1
2019-11-06,09:45,09:45 AM,72.17,71.97,71.97,72.05,72.08,700,50456.0,8
2019-11-06,09:46,09:46 AM,72.115,72.07,72.09,72.09,72.095,500,36047.5,7
2019-11-06,09:47,09:47 AM,72.14,72.14,72.14,72.14,72.14,100,7214.0,2
2019-11-06,09:48,09:48 AM,72.35,72.215,72.215,72.35,72.245,1100,79470.0,5
2019-11-06,09:49,09:49 AM,72.35,72.29,72.33,72.29,72.32300000000002,300,21697.0,3
2019-11-06,09:50,09:50 AM,72.45,72.45,72.45,72.45,72.45,200,14490.0,1
2019-11-06,09:51,09:51 AM,72.59,72.59,72.59,72.59,72.59,137,9944.83,2
2019-11-06,09:52,09:52 AM,72.12,72.07,72.115,72.11,72.107,1100,79318.0,10
2019-11-06,09:53,09:53 AM,,,,,,0,0.0,0
2019-11-06,09:54,09:54 AM,72.07,72.07,72.07,72.07,72.07,100,7207.0,1
2019-11-06,09:55,09:55 AM,72.39,72.33,72.33,72.39,72.346,137,9911.43,2
2019-11-06,09:56,09:56 AM,72.335,72.335,72.335,72.335,72.335,200,14467.0,2
2019-11-06,09:57,09:57 AM,72.435,72.42,72.43,72.42,72.43,2700,195562.0,8
2019-11-06,09:58,09:58 AM,72.33,72.28,72.28,72.33,72.293,137,9904.21,2
2019-11-06,09:59,09:59 AM,72.235,72.125,72.16,72.125,72.17699999999998,1729,124794.315,5
2019-11-06,10:00,10 AM,72.235,72.165,72.165,72.235,72.225,1872,135204.88,3
2019-11-06,10:01,10:01 AM,72.51,72.225,72.225,72.49,72.419,2571,186188.64,9
2019-11-06,10:02,10:02 AM,72.59,72.46,72.525,72.5,72.52199999999998,6400,464142.0,15
2019-11-06,10:03,10:03 AM,72.575,72.45,72.54,72.45,72.52600000000002,2631,190817.45,5
2019-11-06,10:04,10:04 AM,72.57,72.47,72.525,72.51,72.539,2433,176486.825,6
2019-11-06,10:05,10:05 AM,72.575,72.475,72.475,72.485,72.48899999999998,12020,871322.5,7
2019-11-06,10:06,10:06 AM,72.59,72.495,72.495,72.545,72.548,11862,860568.04,13
2019-11-06,10:07,10:07 AM,72.685,72.565,72.57,72.685,72.626,400,29050.5,4
2019-11-06,10:08,10:08 AM,72.67,72.63,72.67,72.63,72.637,1300,94428.0,4
2019-11-06,10:09,10:09 AM,72.6,72.51,72.6,72.51,72.554,2000,145108.0,8
2019-11-06,10:10,10:10 AM,72.645,72.465,72.51,72.645,72.57,539,39115.15,7
2019-11-06,10:11,10:11 AM,72.67,72.6,72.635,72.645,72.637,2300,167065.5,7
2019-11-06,10:12,10:12 AM,72.84,72.68,72.68,72.84,72.759,405,29467.4,6
2019-11-06,10:13,10:13 AM,73.03,72.97,72.97,73.01,73.0,400,29200.0,4
2019-11-06,10:14,10:14 AM,73.045,72.96,73.0,73.045,73.013,1400,102218.0,11
2019-11-06,10:15,10:15 AM,72.97,72.87,72.97,72.93,72.88,2841,207053.335,9
2019-11-06,10:16,10:16 AM,72.86,72.81,72.86,72.86,72.839,468,34088.48,5
2019-11-06,10:17,10:17 AM,72.84,72.7,72.84,72.7,72.757,600,43654.0,5
2019-11-06,10:18,10:18 AM,,,,,,0,0.0,0
2019-11-06,10:19,10:19 AM,72.825,72.825,72.825,72.825,72.825,33,2403.225,1
2019-11-06,10:20,10:20 AM,72.915,72.82,72.82,72.915,72.876,600,43725.5,4
2019-11-06,10:21,10:21 AM,73.03,72.97,72.97,73.03,73.001,1500,109501.0,10
2019-11-06,10:22,10:22 AM,73.035,72.8,73.02,72.8,72.923,2100,153139.0,14
2019-11-06,10:23,10:23 AM,72.78,72.745,72.745,72.76,72.759,600,43655.5,6
2019-11-06,10:24,10:24 AM,72.8,72.745,72.8,72.745,72.786,500,36393.0,5
2019-11-06,10:25,10:25 AM,72.78,72.75,72.75,72.78,72.765,200,14553.0,2
2019-11-06,10:26,10:26 AM,72.64,72.575,72.64,72.635,72.616,600,43569.5,5
2019-11-06,10:27,10:27 AM,72.68,72.61,72.68,72.63,72.63600000000002,632,45906.02,6
2019-11-06,10:28,10:28 AM,72.715,72.65,72.715,72.685,72.682,418,30381.1,5
2019-11-06,10:29,10:29 AM,72.7,72.625,72.7,72.66,72.65899999999998,632,45920.62,7
2019-11-06,10:30,10:30 AM,72.4,71.93,72.4,71.93,72.35300000000002,602,43556.36,7
2019-11-06,10:31,10:31 AM,71.9,71.865,71.865,71.9,71.869,900,64682.0,5
2019-11-06,10:32,10:32 AM,71.895,71.89,71.895,71.89,71.89399999999998,700,50325.5,4
2019-11-06,10:33,10:33 AM,72.14,71.91,71.91,72.14,71.943,1200,86331.335,6
2019-11-06,10:34,10:34 AM,72.26,72.13,72.21,72.13,72.195,403,29094.54,4
2019-11-06,10:35,10:35 AM,72.15,72.06,72.15,72.15,72.126,380,27408.0,4
2019-11-06,10:36,10:36 AM,72.265,72.26,72.265,72.26,72.26100000000002,400,28904.5,4
2019-11-06,10:37,10:37 AM,72.29,72.265,72.265,72.27,72.27600000000002,1022,73865.94,12
2019-11-06,10:38,10:38 AM,72.34,72.3,72.3,72.34,72.322,500,36161.0,5
2019-11-06,10:39,10:39 AM,72.45,72.35,72.36,72.45,72.35600000000002,699,50577.25,10
2019-11-06,10:40,10:40 AM,72.45,72.45,72.45,72.45,72.45,100,7245.0,4
2019-11-06,10:41,10:41 AM,,,,,,0,0.0,0
2019-11-06,10:42,10:42 AM,72.63,72.63,72.63,72.63,72.63,100,7263.0,3
2019-11-06,10:43,10:43 AM,72.77,72.7,72.76,72.7,72.75399999999998,600,43652.5,5
2019-11-06,10:44,10:44 AM,72.755,72.65,72.655,72.755,72.687,500,36343.5,5
2019-11-06,10:45,10:45 AM,72.73,72.675,72.675,72.73,72.709,310,22539.9,4
2019-11-06,10:46,10:46 AM,72.77,72.675,72.76,72.675,72.707,938,68199.26,8
2019-11-06,10:47,10:47 AM,72.64,72.01,72.635,72.01,72.436,700,50705.5,7
2019-11-06,10:48,10:48 AM,72.055,71.96,71.96,72.055,71.976,600,43185.5,3
2019-11-06,10:49,10:49 AM,72.18,72.14,72.18,72.14,72.16199999999998,220,15875.6,3
2019-11-06,10:50,10:50 AM,72.21,72.16,72.21,72.16,72.185,200,14437.0,3
2019-11-06,10:51,10:51 AM,72.06,72.045,72.06,72.045,72.055,300,21616.5,3
2019-11-06,10:52,10:52 AM,72.045,71.99,72.045,71.99,72.017,200,14403.5,2
2019-11-06,10:53,10:53 AM,71.95,71.92,71.92,71.945,71.933,1000,71933.0,4
2019-11-06,10:54,10:54 AM,72.095,72.005,72.005,72.095,72.063,300,21619.0,3
2019-11-06,10:55,10:55 AM,72.165,72.02,72.02,72.165,72.085,600,43251.0,4
2019-11-06,10:56,10:56 AM,,,,,,0,0.0,0
2019-11-06,10:57,10:57 AM,72.2,72.2,72.2,72.2,72.2,100,7220.0,2
2019-11-06,10:58,10:58 AM,72.06,71.98,72.06,71.98,71.98100000000002,102,7342.12,2
2019-11-06,10:59,10:59 AM,71.99,71.895,71.99,71.895,71.942,200,14388.5,2
2019-11-06,11:00,11 AM,71.94,71.92,71.92,71.94,71.928,700,50350.0,4
2019-11-06,11:01,11:01 AM,71.92,71.92,71.92,71.92,71.92,200,14384.0,1
2019-11-06,11:02,11:02 AM,71.79,71.79,71.79,71.79,71.79,100,7179.0,1
2019-11-06,11:03,11:03 AM,71.89,71.89,71.89,71.89,71.89,72,5176.08,1
2019-11-06,11:04,11:04 AM,72.02,71.975,72.02,71.975,72.012,2063,148560.13,5
2019-11-06,11:05,11:05 AM,71.96,71.87,71.96,71.905,71.922,1000,71922.0,7
2019-11-06,11:06,11:06 AM,72.05,71.97,71.98,72.02,72.0,1429,102887.51,17
2019-11-06,11:07,11:07 AM,72.09,72.01,72.02,72.09,72.04,312,22476.66,5
2019-11-06,11:08,11:08 AM,72.11,72.085,72.085,72.11,72.097,200,14419.5,2
2019-11-06,11:09,11:09 AM,,,,,,0,0.0,0
2019-11-06,11:10,11:10 AM,72.115,72.115,72.115,72.115,72.115,100,7211.5,1
2019-11-06,11:11,11:11 AM,72.14,72.08,72.14,72.08,72.12,300,21636.0,2
2019-11-06,11:12,11:12 AM,72.07,72.07,72.07,72.07,72.07,100,7207.0,1
2019-11-06,11:13,11:13 AM,72.09,72.09,72.09,72.09,72.09,100,7209.0,1
2019-11-06,11:14,11:14 AM,72.06,72.025,72.025,72.055,72.031,1900,136860.0,7
2019-11-06,11:15,11:15 AM,72.055,72.03,72.03,72.055,72.051,310,22335.8,4
2019-11-06,11:16,11:16 AM,72.03,71.975,72.03,71.985,71.993,700,50395.0,7
2019-11-06,11:17,11:17 AM,71.715,71.715,71.715,71.715,71.715,100,7171.5,1
2019-11-06,11:18,11:18 AM,71.68,71.68,71.68,71.68,71.68,100,7168.0,1
2019-11-06,11:19,11:19 AM,71.61,71.61,71.61,71.61,71.61,300,21483.0,3
2019-11-06,11:20,11:20 AM,71.52,71.52,71.52,71.52,71.52,100,7152.0,1
2019-11-06,11:21,11:21 AM,71.64,71.545,71.62,71.545,71.6,574,41098.2,6
2019-11-06,11:22,11:22 AM,71.755,71.56,71.56,71.755,71.664,800,57331.56,9
2019-11-06,11:23,11:23 AM,71.73,71.675,71.71,71.675,71.705,300,21511.5,3
2019-11-06,11:24,11:24 AM,71.805,71.675,71.675,71.805,71.703,510,36568.7,6
2019-11-06,11:25,11:25 AM,71.835,71.73,71.83,71.735,71.814,1778,127685.04,7
2019-11-06,11:26,11:26 AM,71.735,71.735,71.735,71.735,71.735,24,1721.64,1
2019-11-06,11:27,11:27 AM,71.73,71.59,71.73,71.59,71.695,400,28678.0,4
2019-11-06,11:28,11:28 AM,71.57,71.525,71.57,71.56,71.554,400,28621.5,4
2019-11-06,11:29,11:29 AM,71.64,71.505,71.64,71.505,71.57300000000002,200,14314.5,2
2019-11-06,11:30,11:30 AM,71.625,71.54,71.54,71.625,71.57600000000002,700,50103.5,7
2019-11-06,11:31,11:31 AM,71.7,71.63,71.66,71.63,71.672,600,43003.5,7
2019-11-06,11:32,11:32 AM,71.76,71.64,71.64,71.76,71.715,310,22231.6,4
2019-11-06,11:33,11:33 AM,71.78,71.78,71.78,71.78,71.78,57,4091.46,1
2019-11-06,11:34,11:34 AM,71.75,71.7,71.75,71.72,71.72399999999998,311,22306.2,6
2019-11-06,11:35,11:35 AM,71.75,71.71,71.75,71.71,71.73,200,14346.0,2
2019-11-06,11:36,11:36 AM,71.67,71.64,71.67,71.64,71.655,200,14331.0,2
2019-11-06,11:37,11:37 AM,71.72,71.695,71.695,71.71,71.709,500,35854.5,5
2019-11-06,11:38,11:38 AM,71.72,71.7,71.715,71.7,71.709,500,35854.5,5
2019-11-06,11:39,11:39 AM,71.7,71.695,71.7,71.695,71.697,300,21509.0,3
2019-11-06,11:40,11:40 AM,71.615,71.57,71.615,71.57,71.593,200,14318.5,2
2019-11-06,11:41,11:41 AM,71.635,71.635,71.635,71.635,71.635,100,7163.5,1
2019-11-06,11:42,11:42 AM,,,,,,0,0.0,0
2019-11-06,11:43,11:43 AM,71.51,71.49,71.51,71.49,71.5,200,14300.0,3
2019-11-06,11:44,11:44 AM,71.65,71.33,71.465,71.35,71.47399999999998,870,62182.6,10
2019-11-06,11:45,11:45 AM,71.37,71.37,71.37,71.37,71.37,100,7137.0,1
2019-11-06,11:46,11:46 AM,71.32,71.32,71.32,71.32,71.32,100,7132.0,1
2019-11-06,11:47,11:47 AM,71.35,71.27,71.33,71.27,71.32,500,35660.0,5
2019-11-06,11:48,11:48 AM,,,,,,0,0.0,0
2019-11-06,11:49,11:49 AM,71.13,71.11,71.12,71.13,71.12,300,21336.0,3
2019-11-06,11:50,11:50 AM,71.13,71.11,71.11,71.13,71.12,200,14224.0,2
2019-11-06,11:51,11:51 AM,71.24,71.24,71.24,71.24,71.24,100,7124.0,1
2019-11-06,11:52,11:52 AM,71.26,71.195,71.26,71.195,71.217,600,42730.0,6
2019-11-06,11:53,11:53 AM,71.2,71.155,71.2,71.155,71.172,300,21351.5,3
2019-11-06,11:54,11:54 AM,71.27,71.235,71.24,71.25,71.249,400,28499.5,4
2019-11-06,11:55,11:55 AM,71.305,71.25,71.25,71.305,71.28699999999998,227,16182.105,5
2019-11-06,11:56,11:56 AM,71.32,71.305,71.32,71.31,71.31,400,28524.0,4
2019-11-06,11:57,11:57 AM,71.34,71.34,71.34,71.34,71.34,300,21402.0,3
2019-11-06,11:58,11:58 AM,71.36,71.33,71.33,71.36,71.344,210,14982.3,4
2019-11-06,11:59,11:59 AM,71.38,71.34,71.38,71.34,71.35300000000002,300,21406.0,3
2019-11-06,12:00,12 PM,71.28,71.28,71.28,71.28,71.28,100,7128.0,1
2019-11-06,12:01,12:01 PM,71.315,71.295,71.315,71.305,71.305,400,28522.0,4
2019-11-06,12:02,12:02 PM,71.465,71.38,71.38,71.465,71.39,216,15420.345,4
2019-11-06,12:03,12:03 PM,71.41,71.31,71.41,71.31,71.377,300,21413.0,3
2019-11-06,12:04,12:04 PM,71.36,71.345,71.355,71.345,71.35300000000002,307,21905.485,3
2019-11-06,12:05,12:05 PM,71.385,71.37,71.385,71.37,71.377,200,14275.5,2
2019-11-06,12:06,12:06 PM,71.435,71.39,71.39,71.435,71.39699999999998,120,8567.7,3
2019-11-06,12:07,12:07 PM,71.455,71.43,71.43,71.455,71.438,300,21431.5,3
2019-11-06,12:08,12:08 PM,71.45,71.36,71.45,71.36,71.407,300,21422.0,3
2019-11-06,12:09,12:09 PM,71.33,71.33,71.33,71.33,71.33,100,7133.0,1
2019-11-06,12:10,12:10 PM,71.39,71.31,71.39,71.31,71.35,200,14270.0,2
2019-11-06,12:11,12:11 PM,71.31,71.26,71.3,71.26,71.297,554,39498.74,6
2019-11-06,12:12,12:12 PM,71.28,71.28,71.28,71.28,71.28,100,7128.0,1
2019-11-06,12:13,12:13 PM,71.23,71.18,71.23,71.18,71.205,200,14241.0,2
2019-11-06,12:14,12:14 PM,,,,,,0,0.0,0
2019-11-06,12:15,12:15 PM,71.14,71.14,71.14,71.14,71.14,100,7114.0,1
2019-11-06,12:16,12:16 PM,71.14,71.14,71.14,71.14,71.14,100,7114.0,2
2019-11-06,12:17,12:17 PM,71.2,71.2,71.2,71.2,71.2,100,7120.0,1
2019-11-06,12:18,12:18 PM,,,,,,0,0.0,0
2019-11-06,12:19,12:19 PM,,,,,,0,0.0,0
2019-11-06,12:20,12:20 PM,71.01,71.01,71.01,71.01,71.01,4500,319545.0,10
2019-11-06,12:21,12:21 PM,,,,,,0,0.0,0
2019-11-06,12:22,12:22 PM,71.06,71.03,71.03,71.06,71.05199999999998,545,38723.42,5
2019-11-06,12:23,12:23 PM,71.06,71.05,71.05,71.06,71.055,200,14211.0,2
2019-11-06,12:24,12:24 PM,71.07,71.07,71.07,71.07,71.07,100,7107.0,1
2019-11-06,12:25,12:25 PM,,,,,,0,0.0,0
2019-11-06,12:26,12:26 PM,,,,,,0,0.0,0
2019-11-06,12:27,12:27 PM,71.06,71.04,71.04,71.06,71.05199999999998,500,35526.0,5
2019-11-06,12:28,12:28 PM,71.08,71.075,71.08,71.075,71.077,300,21323.0,3
2019-11-06,12:29,12:29 PM,71.045,71.03,71.045,71.04,71.041,230,16339.4,3
2019-11-06,12:30,12:30 PM,71.125,71.03,71.03,71.125,71.075,700,49752.5,7
2019-11-06,12:31,12:31 PM,71.16,71.15,71.15,71.16,71.155,207,14729.05,3
2019-11-06,12:32,12:32 PM,71.14,71.14,71.14,71.14,71.14,100,7114.0,1
2019-11-06,12:33,12:33 PM,71.015,71.015,71.015,71.015,71.015,100,7101.5,1
2019-11-06,12:34,12:34 PM,71.08,71.07,71.08,71.07,71.078,500,35539.0,4
2019-11-06,12:35,12:35 PM,71.03,71.01,71.03,71.01,71.02,200,14204.0,2
2019-11-06,12:36,12:36 PM,71.02,71.01,71.01,71.015,71.015,400,28406.0,4
2019-11-06,12:37,12:37 PM,71.025,70.995,71.025,70.995,71.005,300,21301.5,3
2019-11-06,12:38,12:38 PM,70.955,70.93,70.93,70.955,70.942,300,21282.5,3
2019-11-06,12:39,12:39 PM,70.845,70.82,70.82,70.845,70.832,300,21249.5,3
2019-11-06,12:40,12:40 PM,70.85,70.79,70.85,70.82,70.818,500,35409.0,5
2019-11-06,12:41,12:41 PM,70.84,70.8,70.8,70.82,70.821,210,14872.36,4
2019-11-06,12:42,12:42 PM,70.88,70.805,70.805,70.88,70.837,600,42502.0,6
2019-11-06,12:43,12:43 PM,70.87,70.74,70.87,70.74,70.8,300,21240.0,3
2019-11-06,12:44,12:44 PM,70.81,70.81,70.81,70.81,70.81,100,7081.0,1
2019-11-06,12:45,12:45 PM,70.73,70.73,70.73,70.73,70.73,200,14146.0,2
2019-11-06,12:46,12:46 PM,70.73,70.72,70.73,70.72,70.721,107,7567.11,2
2019-11-06,12:47,12:47 PM,70.71,70.71,70.71,70.71,70.71,300,21213.0,3
2019-11-06,12:48,12:48 PM,70.77,70.72,70.72,70.77,70.741,700,49519.0,7
2019-11-06,12:49,12:49 PM,70.75,70.71,70.71,70.73,70.729,801,56653.71,7
2019-11-06,12:50,12:50 PM,70.68,70.68,70.68,70.68,70.68,101,7138.68,2
2019-11-06,12:51,12:51 PM,,,,,,0,0.0,0
2019-11-06,12:52,12:52 PM,70.755,70.71,70.73,70.71,70.736,400,28294.5,6
2019-11-06,12:53,12:53 PM,70.76,70.76,70.76,70.76,70.76,5,353.8,1
2019-11-06,12:54,12:54 PM,70.87,70.86,70.86,70.86,70.863,300,21259.0,3
2019-11-06,12:55,12:55 PM,,,,,,0,0.0,0
2019-11-06,12:56,12:56 PM,,,,,,0,0.0,0
2019-11-06,12:57,12:57 PM,70.73,70.72,70.72,70.725,70.725,400,28290.0,4
2019-11-06,12:58,12:58 PM,,,,,,0,0.0,0
2019-11-06,12:59,12:59 PM,70.81,70.81,70.81,70.81,70.81,100,7081.0,1
2019-11-06,13:00,1 PM,,,,,,0,0.0,0
2019-11-06,13:01,1:01 PM,70.86,70.785,70.785,70.86,70.822,211,14943.52,4
2019-11-06,13:02,1:02 PM,70.85,70.84,70.84,70.85,70.845,200,14169.0,2
2019-11-06,13:03,1:03 PM,70.88,70.815,70.815,70.88,70.847,200,14169.5,2
2019-11-06,13:04,1:04 PM,70.87,70.86,70.87,70.86,70.865,200,14173.0,2
2019-11-06,13:05,1:05 PM,70.8,70.8,70.8,70.8,70.8,100,7080.0,1
2019-11-06,13:06,1:06 PM,70.775,70.72,70.775,70.74,70.76,329,23279.88,3
2019-11-06,13:07,1:07 PM,70.75,70.74,70.74,70.75,70.744,330,23345.5,4
2019-11-06,13:08,1:08 PM,70.705,70.69,70.7,70.69,70.696,400,28278.5,4
2019-11-06,13:09,1:09 PM,70.69,70.68,70.69,70.68,70.685,200,14137.0,2
2019-11-06,13:10,1:10 PM,70.74,70.715,70.715,70.74,70.717,111,7849.64,2
2019-11-06,13:11,1:11 PM,70.8,70.785,70.8,70.785,70.79,300,21237.0,3
2019-11-06,13:12,1:12 PM,70.75,70.75,70.75,70.75,70.75,100,7075.0,1
2019-11-06,13:13,1:13 PM,70.795,70.745,70.745,70.795,70.77199999999998,600,42463.5,6
2019-11-06,13:14,1:14 PM,70.79,70.765,70.78,70.765,70.775,800,56619.685,10
2019-11-06,13:15,1:15 PM,70.85,70.79,70.79,70.85,70.796,111,7858.35,2
2019-11-06,13:16,1:16 PM,70.94,70.94,70.94,70.94,70.94,11,780.34,1
2019-11-06,13:17,1:17 PM,71.01,70.985,70.985,71.01,70.999,400,28399.5,4
2019-11-06,13:18,1:18 PM,71.125,71.07,71.07,71.125,71.085,1000,71085.0,6
2019-11-06,13:19,1:19 PM,71.155,71.13,71.13,71.13,71.146,1600,113833.5,9
2019-11-06,13:20,1:20 PM,71.175,71.14,71.16,71.175,71.15899999999998,5200,370025.03,26
2019-11-06,13:21,1:21 PM,71.18,71.17,71.175,71.175,71.17399999999998,604,42989.22,7
2019-11-06,13:22,1:22 PM,71.17,71.08,71.17,71.08,71.169,202,14376.16,3
2019-11-06,13:23,1:23 PM,71.1,71.1,71.1,71.1,71.1,100,7110.0,1
2019-11-06,13:24,1:24 PM,71.05,71.015,71.015,71.05,71.032,200,14206.5,2
2019-11-06,13:25,1:25 PM,71.11,71.05,71.06,71.11,71.082,400,28433.0,5
2019-11-06,13:26,1:26 PM,71.065,71.03,71.03,71.065,71.03699999999998,215,15272.975,3
2019-11-06,13:27,1:27 PM,71.01,70.94,70.97,70.94,70.973,300,21292.0,3
2019-11-06,13:28,1:28 PM,71.055,70.94,71.055,70.94,71.013,300,21304.0,3
2019-11-06,13:29,1:29 PM,70.94,70.92,70.94,70.92,70.93,200,14186.0,3
2019-11-06,13:30,1:30 PM,70.9,70.8,70.9,70.8,70.829,474,33572.9,4
2019-11-06,13:31,1:31 PM,70.745,70.745,70.745,70.745,70.745,100,7074.5,1
2019-11-06,13:32,1:32 PM,70.77,70.77,70.77,70.77,70.77,200,14154.0,2
2019-11-06,13:33,1:33 PM,,,,,,0,0.0,0
2019-11-06,13:34,1:34 PM,70.915,70.9,70.9,70.915,70.907,200,14181.5,2
2019-11-06,13:35,1:35 PM,70.93,70.93,70.93,70.93,70.93,100,7093.0,1
2019-11-06,13:36,1:36 PM,70.9,70.83,70.9,70.83,70.865,200,14173.0,2
2019-11-06,13:37,1:37 PM,70.83,70.83,70.83,70.83,70.83,74,5241.42,1
2019-11-06,13:38,1:38 PM,70.82,70.805,70.82,70.805,70.813,200,14162.5,2
2019-11-06,13:39,1:39 PM,70.83,70.785,70.785,70.83,70.8,300,21240.0,3
2019-11-06,13:40,1:40 PM,70.95,70.95,70.95,70.95,70.95,100,7095.0,1
2019-11-06,13:41,1:41 PM,70.995,70.975,70.975,70.995,70.991,108,7667.005,4
2019-11-06,13:42,1:42 PM,71.065,71.0,71.0,71.065,71.033,209,14845.86,3
2019-11-06,13:43,1:43 PM,71.14,71.07,71.07,71.14,71.10600000000002,515,36619.85,6
2019-11-06,13:44,1:44 PM,71.135,71.085,71.135,71.085,71.112,300,21333.5,3
2019-11-06,13:45,1:45 PM,71.12,71.1,71.11,71.1,71.11,400,28444.0,4
2019-11-06,13:46,1:46 PM,71.11,71.09,71.09,71.11,71.1,400,28440.0,3
2019-11-06,13:47,1:47 PM,71.155,71.145,71.145,71.155,71.152,422,30026.3,6
2019-11-06,13:48,1:48 PM,71.185,71.13,71.13,71.165,71.166,400,28466.5,4
2019-11-06,13:49,1:49 PM,71.34,71.29,71.29,71.34,71.308,300,21392.5,3
2019-11-06,13:50,1:50 PM,71.49,71.49,71.49,71.49,71.49,15,1072.35,1
2019-11-06,13:51,1:51 PM,71.6,71.52,71.52,71.585,71.569,400,28627.5,4
2019-11-06,13:52,1:52 PM,71.71,71.71,71.71,71.71,71.71,100,7171.0,1
2019-11-06,13:53,1:53 PM,71.59,71.59,71.59,71.59,71.59,75,5369.25,1
2019-11-06,13:54,1:54 PM,71.62,71.62,71.62,71.62,71.62,100,7162.0,1
2019-11-06,13:55,1:55 PM,71.72,71.67,71.68,71.68,71.67399999999998,323,23150.76,7
2019-11-06,13:56,1:56 PM,71.695,71.695,71.695,71.695,71.695,100,7169.5,1
2019-11-06,13:57,1:57 PM,71.775,71.755,71.755,71.775,71.771,51,3660.305,2
2019-11-06,13:58,1:58 PM,71.735,71.735,71.735,71.735,71.735,100,7173.5,1
2019-11-06,13:59,1:59 PM,71.83,71.8,71.83,71.81,71.814,565,40574.945,8
2019-11-06,14:00,2 PM,71.825,71.825,71.825,71.825,71.825,100,7182.5,1
2019-11-06,14:01,2:01 PM,71.925,71.74,71.925,71.74,71.809,324,23266.0,4
2019-11-06,14:02,2:02 PM,,,,,,0,0.0,0
2019-11-06,14:03,2:03 PM,71.66,71.555,71.66,71.555,71.617,556,39819.08,6
2019-11-06,14:04,2:04 PM,71.59,71.58,71.59,71.58,71.585,200,14317.0,2
2019-11-06,14:05,2:05 PM,71.59,71.58,71.59,71.58,71.587,300,21476.0,3
2019-11-06,14:06,2:06 PM,71.65,71.65,71.65,71.65,71.65,100,7165.0,1
2019-11-06,14:07,2:07 PM,71.665,71.665,71.665,71.665,71.665,100,7166.5,1
2019-11-06,14:08,2:08 PM,71.7,71.67,71.7,71.67,71.687,180,12903.6,3
2019-11-06,14:09,2:09 PM,71.62,71.62,71.62,71.62,71.62,37,2649.94,1
2019-11-06,14:10,2:10 PM,71.57,71.57,71.57,71.57,71.57,37,2648.09,1
2019-11-06,14:11,2:11 PM,,,,,,0,0.0,0
2019-11-06,14:12,2:12 PM,71.56,71.56,71.56,71.56,71.56,2,143.12,2
2019-11-06,14:13,2:13 PM,71.56,71.56,71.56,71.56,71.56,100,7156.0,1
2019-11-06,14:14,2:14 PM,71.57,71.485,71.57,71.485,71.486,101,7220.07,2
2019-11-06,14:15,2:15 PM,,,,,,0,0.0,0
2019-11-06,14:16,2:16 PM,71.525,71.51,71.525,71.51,71.518,300,21455.5,3
2019-11-06,14:17,2:17 PM,,,,,,0,0.0,0
2019-11-06,14:18,2:18 PM,71.495,71.49,71.49,71.495,71.493,200,14298.5,2
2019-11-06,14:19,2:19 PM,71.5,71.5,71.5,71.5,71.5,100,7150.0,1
2019-11-06,14:20,2:20 PM,71.53,71.52,71.52,71.53,71.525,200,14305.0,2
2019-11-06,14:21,2:21 PM,,,,,,0,0.0,0
2019-11-06,14:22,2:22 PM,71.515,71.49,71.49,71.515,71.503,202,14443.53,3
2019-11-06,14:23,2:23 PM,71.53,71.53,71.53,71.53,71.53,100,7153.0,1
2019-11-06,14:24,2:24 PM,,,,,,0,0.0,0
2019-11-06,14:25,2:25 PM,71.58,71.55,71.58,71.55,71.565,200,14313.0,2
2019-11-06,14:26,2:26 PM,,,,,,0,0.0,0
2019-11-06,14:27,2:27 PM,71.62,71.62,71.62,71.62,71.62,100,7162.0,1
2019-11-06,14:28,2:28 PM,71.52,71.515,71.52,71.515,71.51899999999998,900,64367.0,5
2019-11-06,14:29,2:29 PM,71.55,71.55,71.55,71.55,71.55,45,3219.75,1
2019-11-06,14:30,2:30 PM,71.625,71.59,71.625,71.59,71.595,313,22409.125,4
2019-11-06,14:31,2:31 PM,71.56,71.55,71.55,71.56,71.555,200,14311.0,2
2019-11-06,14:32,2:32 PM,,,,,,0,0.0,0
2019-11-06,14:33,2:33 PM,71.52,71.52,71.52,71.52,71.52,61,4362.72,2
2019-11-06,14:34,2:34 PM,71.46,71.41,71.46,71.43,71.453,704,50302.72,8
2019-11-06,14:35,2:35 PM,71.42,71.415,71.42,71.415,71.418,200,14283.5,2
2019-11-06,14:36,2:36 PM,71.4,71.4,71.4,71.4,71.4,100,7140.0,1
2019-11-06,14:37,2:37 PM,,,,,,0,0.0,0
2019-11-06,14:38,2:38 PM,71.41,71.4,71.41,71.4,71.40100000000002,110,7854.1,2
2019-11-06,14:39,2:39 PM,,,,,,0,0.0,0
2019-11-06,14:40,2:40 PM,71.305,71.3,71.3,71.3,71.30199999999998,693,49412.085,8
2019-11-06,14:41,2:41 PM,71.3,71.3,71.3,71.3,71.3,1275,90907.5,14
2019-11-06,14:42,2:42 PM,71.3,71.3,71.3,71.3,71.3,653,46558.9,6
2019-11-06,14:43,2:43 PM,71.3,71.3,71.3,71.3,71.3,100,7130.0,1
2019-11-06,14:44,2:44 PM,71.285,71.24,71.285,71.24,71.263,200,14252.5,2
2019-11-06,14:45,2:45 PM,71.355,71.31,71.325,71.355,71.319,199,14192.415,5
2019-11-06,14:46,2:46 PM,71.44,71.37,71.37,71.44,71.421,28,1999.79,3
2019-11-06,14:47,2:47 PM,71.45,71.45,71.45,71.45,71.45,100,7145.0,1
2019-11-06,14:48,2:48 PM,71.475,71.44,71.44,71.475,71.461,324,23153.4,4
2019-11-06,14:49,2:49 PM,71.49,71.46,71.49,71.46,71.479,161,11508.07,3
2019-11-06,14:50,2:50 PM,,,,,,0,0.0,0
2019-11-06,14:51,2:51 PM,71.48,71.44,71.48,71.44,71.459,500,35729.5,3
2019-11-06,14:52,2:52 PM,71.49,71.49,71.49,71.49,71.49,100,7149.0,1
2019-11-06,14:53,2:53 PM,71.53,71.53,71.53,71.53,71.53,8,572.24,1
2019-11-06,14:54,2:54 PM,71.54,71.54,71.54,71.54,71.54,8,572.32,1
2019-11-06,14:55,2:55 PM,71.585,71.55,71.55,71.585,71.559,140,10018.25,3
2019-11-06,14:56,2:56 PM,71.56,71.56,71.56,71.56,71.56,100,7156.0,1
2019-11-06,14:57,2:57 PM,,,,,,0,0.0,0
2019-11-06,14:58,2:58 PM,,,,,,0,0.0,0
2019-11-06,14:59,2:59 PM,71.41,71.405,71.405,71.41,71.408,164,11710.92,2
2019-11-06,15:00,3 PM,71.48,71.445,71.445,71.48,71.477,108,7719.56,2
2019-11-06,15:01,3:01 PM,71.52,71.505,71.505,71.51,71.51100000000002,26,1859.29,3
2019-11-06,15:02,3:02 PM,71.53,71.53,71.53,71.53,71.53,1,71.53,1
2019-11-06,15:03,3:03 PM,71.56,71.545,71.56,71.545,71.55199999999998,200,14310.5,2
2019-11-06,15:04,3:04 PM,71.615,71.55,71.55,71.615,71.565,1425,101980.4,5
2019-11-06,15:05,3:05 PM,71.64,71.64,71.64,71.64,71.64,200,14328.0,2
2019-11-06,15:06,3:06 PM,,,,,,0,0.0,0
2019-11-06,15:07,3:07 PM,71.6,71.6,71.6,71.6,71.6,100,7160.0,1
2019-11-06,15:08,3:08 PM,,,,,,0,0.0,0
2019-11-06,15:09,3:09 PM,71.62,71.595,71.595,71.62,71.601,129,9236.48,4
2019-11-06,15:10,3:10 PM,71.68,71.665,71.67,71.68,71.671,366,26231.72,4
2019-11-06,15:11,3:11 PM,71.705,71.705,71.705,71.705,71.705,237,16994.085,4
2019-11-06,15:12,3:12 PM,71.76,71.72,71.72,71.76,71.74,204,14635.04,3
2019-11-06,15:13,3:13 PM,,,,,,0,0.0,0
2019-11-06,15:14,3:14 PM,71.74,71.68,71.68,71.74,71.719,203,14559.04,4
2019-11-06,15:15,3:15 PM,71.82,71.75,71.75,71.82,71.763,169,12127.9,6
2019-11-06,15:16,3:16 PM,,,,,,0,0.0,0
2019-11-06,15:17,3:17 PM,71.82,71.82,71.82,71.82,71.82,200,14364.0,2
2019-11-06,15:18,3:18 PM,71.755,71.7,71.755,71.7,71.72800000000002,200,14345.5,2
2019-11-06,15:19,3:19 PM,71.745,71.73,71.73,71.745,71.737,222,15925.67,3
2019-11-06,15:20,3:20 PM,71.745,71.685,71.685,71.745,71.706,446,31981.01,8
2019-11-06,15:21,3:21 PM,71.77,71.77,71.77,71.77,71.77,100,7177.0,1
2019-11-06,15:22,3:22 PM,,,,,,0,0.0,0
2019-11-06,15:23,3:23 PM,71.81,71.79,71.79,71.81,71.804,328,23551.68,3
2019-11-06,15:24,3:24 PM,71.81,71.81,71.81,71.81,71.81,3,215.43,2
2019-11-06,15:25,3:25 PM,71.83,71.78,71.78,71.82,71.816,442,31742.86,6
2019-11-06,15:26,3:26 PM,71.8,71.78,71.8,71.78,71.793,329,23619.78,4
2019-11-06,15:27,3:27 PM,71.825,71.785,71.785,71.815,71.788,550,39483.62,5
2019-11-06,15:28,3:28 PM,71.83,71.815,71.83,71.815,71.822,232,16662.6,4
2019-11-06,15:29,3:29 PM,71.82,71.81,71.82,71.82,71.82,257,18457.73,6
2019-11-06,15:30,3:30 PM,71.87,71.8,71.87,71.81,71.811,230,16516.62,4
2019-11-06,15:31,3:31 PM,,,,,,0,0.0,0
2019-11-06,15:32,3:32 PM,71.755,71.63,71.755,71.63,71.707,400,28683.0,4
2019-11-06,15:33,3:33 PM,71.64,71.64,71.64,71.64,71.64,13,931.32,1
2019-11-06,15:34,3:34 PM,71.69,71.59,71.68,71.6,71.63,1211,86743.8,14
2019-11-06,15:35,3:35 PM,71.66,71.59,71.615,71.66,71.632,1753,125571.85,20
2019-11-06,15:36,3:36 PM,71.67,71.59,71.65,71.67,71.622,964,69043.425,10
2019-11-06,15:37,3:37 PM,71.705,71.665,71.665,71.705,71.689,545,39070.605,8
2019-11-06,15:38,3:38 PM,71.725,71.675,71.72,71.685,71.714,1040,74582.27,12
2019-11-06,15:39,3:39 PM,71.67,71.64,71.67,71.64,71.661,340,24364.66,5
2019-11-06,15:40,3:40 PM,71.63,71.62,71.63,71.62,71.628,263,18838.06,3
2019-11-06,15:41,3:41 PM,,,,,,0,0.0,0
2019-11-06,15:42,3:42 PM,71.535,71.51,71.52,71.535,71.518,301,21527.02,3
2019-11-06,15:43,3:43 PM,71.49,71.48,71.49,71.49,71.487,177,12653.17,4
2019-11-06,15:44,3:44 PM,71.485,71.34,71.485,71.355,71.407,288,20565.365,7
2019-11-06,15:45,3:45 PM,71.475,71.355,71.36,71.475,71.418,726,51849.23,14
2019-11-06,15:46,3:46 PM,71.47,71.425,71.45,71.425,71.456,608,43444.99,9
2019-11-06,15:47,3:47 PM,71.43,71.32,71.43,71.34,71.361,259,18482.62,4
2019-11-06,15:48,3:48 PM,71.36,71.345,71.345,71.36,71.352,728,51944.34,10
2019-11-06,15:49,3:49 PM,71.41,71.395,71.395,71.41,71.40100000000002,321,22919.795,3
2019-11-06,15:50,3:50 PM,71.43,71.42,71.43,71.43,71.426,638,45569.655,9
2019-11-06,15:51,3:51 PM,71.51,71.43,71.43,71.44,71.46600000000002,2199,157153.05,22
2019-11-06,15:52,3:52 PM,71.435,71.405,71.425,71.435,71.418,1866,133266.73,16
2019-11-06,15:53,3:53 PM,71.53,71.44,71.44,71.53,71.491,1403,100302.54,17
2019-11-06,15:54,3:54 PM,71.52,71.43,71.52,71.43,71.473,1726,123362.105,24
2019-11-06,15:55,3:55 PM,71.47,71.435,71.44,71.465,71.454,1770,126474.155,21
2019-11-06,15:56,3:56 PM,71.465,71.29,71.465,71.29,71.434,1601,114366.715,20
2019-11-06,15:57,3:57 PM,71.325,71.3,71.3,71.325,71.312,651,46423.94,11
2019-11-06,15:58,3:58 PM,71.4,71.325,71.325,71.35,71.369,3367,240298.79,48
2019-11-06,15:59,3:59 PM,71.42,71.34,71.365,71.42,71.37899999999998,2795,199505.365,34
2019-11-07,09:30,09:30 AM,72.47,72.47,72.47,72.47,72.47,122,8841.34,3
2019-11-07,09:31,09:31 AM,73.14,72.87,72.965,73.14,73.029,1100,80331.5,9
2019-11-07,09:32,09:32 AM,73.78,73.19,73.19,73.415,73.514,770,56605.705,8
2019-11-07,09:33,09:33 AM,73.7,73.32,73.7,73.32,73.577,750,55182.7,7
2019-11-07,09:34,09:34 AM,74.41,73.78,73.78,74.41,74.196,1110,82357.3,9
2019-11-07,09:35,09:35 AM,74.18,73.89,74.18,73.9,73.99,5578,412716.34,16
2019-11-07,09:36,09:36 AM,73.645,73.465,73.645,73.465,73.631,1650,121491.5,5
2019-11-07,09:37,09:37 AM,73.755,73.495,73.505,73.755,73.618,650,47851.75,3
2019-11-07,09:38,09:38 AM,73.62,73.62,73.62,73.62,73.62,300,22086.0,1
2019-11-07,09:39,09:39 AM,73.525,73.255,73.255,73.525,73.296,1475,108111.125,9
2019-11-07,09:40,09:40 AM,73.71,73.55,73.71,73.55,73.61,300,22083.0,3
2019-11-07,09:41,09:41 AM,73.78,73.53,73.57,73.78,73.53699999999998,8476,623297.67,9
2019-11-07,09:42,09:42 AM,73.95,73.63,73.66,73.93,73.931,15062,1113554.4,13
2019-11-07,09:43,09:43 AM,73.95,73.56,73.91,73.89,73.617,1607,118301.87,11
2019-11-07,09:44,09:44 AM,73.52,73.37,73.52,73.47,73.497,1100,80847.0,5
2019-11-07,09:45,09:45 AM,73.6,73.34,73.6,73.425,73.433,2541,186592.025,14
2019-11-07,09:46,09:46 AM,73.395,73.235,73.395,73.32,73.283,757,55475.57,13
2019-11-07,09:47,09:47 AM,73.765,73.58,73.65,73.58,73.668,1252,92231.81,11
2019-11-07,09:48,09:48 AM,73.605,73.535,73.58,73.605,73.559,700,51491.25,6
2019-11-07,09:49,09:49 AM,73.775,73.72,73.72,73.72,73.74600000000002,400,29498.5,5
2019-11-07,09:50,09:50 AM,73.78,73.78,73.78,73.78,73.78,100,7378.0,1
2019-11-07,09:51,09:51 AM,74.08,73.99,74.005,74.08,74.048,1312,97150.5,5
2019-11-07,09:52,09:52 AM,74.04,74.03,74.03,74.04,74.039,110,8144.3,2
2019-11-07,09:53,09:53 AM,74.26,74.1,74.26,74.1,74.227,489,36297.14,3
2019-11-07,09:54,09:54 AM,74.13,73.99,74.02,74.13,74.01899999999998,225,16654.25,3
2019-11-07,09:55,09:55 AM,74.37,74.18,74.18,74.31,74.273,801,59492.38,10
2019-11-07,09:56,09:56 AM,74.43,74.21,74.28,74.43,74.262,1855,137756.0,12
2019-11-07,09:57,09:57 AM,74.74,74.7,74.7,74.74,74.72,2000,149440.0,2
2019-11-07,09:58,09:58 AM,74.86,74.85,74.86,74.85,74.858,500,37429.0,5
2019-11-07,09:59,09:59 AM,74.85,74.59,74.85,74.59,74.653,2700,201564.5,12
2019-11-07,10:00,10 AM,74.57,74.47,74.53,74.47,74.527,900,67074.0,9
2019-11-07,10:01,10:01 AM,74.485,74.355,74.465,74.43,74.40899999999998,1129,84007.97,12
2019-11-07,10:02,10:02 AM,74.48,74.43,74.43,74.47,74.456,561,41769.73,6
2019-11-07,10:03,10:03 AM,74.565,74.41,74.505,74.45,74.495,10692,796505.12,58
2019-11-07,10:04,10:04 AM,74.64,74.455,74.455,74.53,74.512,3520,262283.6,22
2019-11-07,10:05,10:05 AM,74.67,74.41,74.53,74.41,74.543,12207,909944.21,54
2019-11-07,10:06,10:06 AM,74.61,74.5,74.5,74.61,74.513,650,48433.5,4
2019-11-07,10:07,10:07 AM,74.68,74.39,74.655,74.39,74.559,1300,96927.24,13
2019-11-07,10:08,10:08 AM,74.63,74.425,74.425,74.6,74.524,600,44714.5,6
2019-11-07,10:09,10:09 AM,74.55,74.455,74.55,74.455,74.485,802,59737.1,7
2019-11-07,10:10,10:10 AM,74.575,74.485,74.485,74.55,74.53699999999998,474,35330.585,7
2019-11-07,10:11,10:11 AM,74.575,74.55,74.575,74.55,74.567,300,22370.0,5
2019-11-07,10:12,10:12 AM,74.62,74.53,74.6,74.595,74.582,1005,74954.975,11
2019-11-07,10:13,10:13 AM,74.63,74.535,74.58,74.63,74.57,1125,83891.5,12
2019-11-07,10:14,10:14 AM,74.55,74.44,74.54,74.44,74.499,700,52149.0,7
2019-11-07,10:15,10:15 AM,74.625,74.475,74.475,74.625,74.56,639,47643.93,7
2019-11-07,10:16,10:16 AM,74.595,74.535,74.595,74.535,74.57,750,55927.5,8
2019-11-07,10:17,10:17 AM,74.64,74.415,74.45,74.64,74.447,1319,98195.535,9
2019-11-07,10:18,10:18 AM,74.705,74.61,74.64,74.61,74.656,1792,133783.185,16
2019-11-07,10:19,10:19 AM,74.73,74.61,74.61,74.73,74.67699999999998,470,35098.2,6
2019-11-07,10:20,10:20 AM,74.69,74.53,74.69,74.53,74.615,511,38128.01,7
2019-11-07,10:21,10:21 AM,74.69,74.525,74.58,74.69,74.551,3701,275914.68,16
2019-11-07,10:22,10:22 AM,74.82,74.71,74.71,74.735,74.76100000000002,2435,182042.075,27
2019-11-07,10:23,10:23 AM,74.795,74.72,74.745,74.77,74.76,715,53453.675,8
2019-11-07,10:24,10:24 AM,74.89,74.77,74.795,74.89,74.806,5500,411435.5,9
2019-11-07,10:25,10:25 AM,74.8,74.8,74.8,74.8,74.8,100,7480.0,1
2019-11-07,10:26,10:26 AM,74.88,74.81,74.81,74.88,74.877,2615,195803.3,4
2019-11-07,10:27,10:27 AM,74.785,74.77,74.77,74.785,74.782,500,37391.0,3
2019-11-07,10:28,10:28 AM,74.92,74.77,74.77,74.92,74.837,415,31057.25,5
2019-11-07,10:29,10:29 AM,75.07,74.92,74.935,75.07,74.957,1380,103440.445,9
2019-11-07,10:30,10:30 AM,75.13,75.09,75.09,75.13,75.112,400,30045.0,4
2019-11-07,10:31,10:31 AM,75.285,75.18,75.18,75.21,75.243,502,37771.86,6
2019-11-07,10:32,10:32 AM,75.16,75.015,75.15,75.015,75.079,679,50978.48,7
2019-11-07,10:33,10:33 AM,75.145,74.98,74.98,75.145,75.055,400,30022.0,4
2019-11-07,10:34,10:34 AM,75.155,74.995,75.15,74.995,75.12899999999998,2250,169040.925,18
2019-11-07,10:35,10:35 AM,75.205,74.95,75.01,75.195,75.07600000000002,1572,118019.82,16
2019-11-07,10:36,10:36 AM,75.375,75.19,75.22,75.37,75.278,3040,228844.8,15
2019-11-07,10:37,10:37 AM,75.51,75.35,75.375,75.51,75.432,1324,99872.19,13
2019-11-07,10:38,10:38 AM,75.495,75.38,75.47,75.395,75.465,2494,188210.49,15
2019-11-07,10:39,10:39 AM,75.545,75.47,75.48,75.47,75.51100000000002,793,59880.64,7
2019-11-07,10:40,10:40 AM,75.46,75.41,75.42,75.445,75.446,3519,265494.67,14
2019-11-07,10:41,10:41 AM,75.425,75.375,75.42,75.41,75.417,9177,692098.89,18
2019-11-07,10:42,10:42 AM,75.465,75.375,75.425,75.42,75.415,5835,440046.225,16
2019-11-07,10:43,10:43 AM,75.535,75.41,75.44,75.435,75.483,5035,380057.55,22
2019-11-07,10:44,10:44 AM,75.455,75.38,75.38,75.455,75.405,800,60324.0,5
2019-11-07,10:45,10:45 AM,75.465,75.385,75.44,75.385,75.42,2655,200239.95,19
2019-11-07,10:46,10:46 AM,75.345,75.26,75.26,75.345,75.3,2824,212648.46,18
2019-11-07,10:47,10:47 AM,75.425,75.345,75.345,75.4,75.37899999999998,8731,658136.385,23
2019-11-07,10:48,10:48 AM,75.42,75.355,75.405,75.355,75.402,8900,671078.5,24
2019-11-07,10:49,10:49 AM,75.475,75.415,75.435,75.415,75.452,6500,490440.0,18
2019-11-07,10:50,10:50 AM,75.55,75.415,75.415,75.43,75.46,20149,1520448.3,19
2019-11-07,10:51,10:51 AM,75.475,75.43,75.44,75.435,75.46300000000002,2410,181866.15,13
2019-11-07,10:52,10:52 AM,75.43,75.08,75.43,75.115,75.278,2000,150555.5,13
2019-11-07,10:53,10:53 AM,75.03,74.77,75.02,74.945,74.868,2812,210529.48,12
2019-11-07,10:54,10:54 AM,75.26,75.18,75.18,75.26,75.214,1141,85818.93,9
2019-11-07,10:55,10:55 AM,75.325,75.26,75.29,75.325,75.28699999999998,1699,127912.315,13
2019-11-07,10:56,10:56 AM,75.465,75.36,75.36,75.405,75.438,7330,552957.67,20
2019-11-07,10:57,10:57 AM,75.485,75.29,75.425,75.29,75.423,3101,233887.585,35
2019-11-07,10:58,10:58 AM,75.44,75.38,75.385,75.44,75.39699999999998,525,39583.25,6
2019-11-07,10:59,10:59 AM,75.5,75.41,75.44,75.47,75.447,1547,116716.505,13
2019-11-07,11:00,11 AM,75.47,75.36,75.47,75.36,75.42399999999998,1640,123695.9,17
2019-11-07,11:01,11:01 AM,75.44,75.35,75.39,75.35,75.426,3102,233971.36,13
2019-11-07,11:02,11:02 AM,75.33,75.195,75.245,75.32,75.22399999999998,1176,88463.57,12
2019-11-07,11:03,11:03 AM,75.32,75.24,75.32,75.27,75.295,4900,368946.5,13
2019-11-07,11:04,11:04 AM,75.24,75.125,75.24,75.125,75.165,620,46602.3,7
2019-11-07,11:05,11:05 AM,75.04,75.0,75.03,75.04,75.02,256,19205.24,3
2019-11-07,11:06,11:06 AM,75.03,75.01,75.03,75.03,75.018,500,37509.0,6
2019-11-07,11:07,11:07 AM,74.97,74.965,74.97,74.97,74.969,302,22640.74,5
2019-11-07,11:08,11:08 AM,75.03,75.0,75.03,75.0,75.01,2600,195026.5,12
2019-11-07,11:09,11:09 AM,74.915,74.89,74.915,74.89,74.895,1900,142301.0,3
2019-11-07,11:10,11:10 AM,75.0,74.95,74.965,74.95,74.984,1900,142469.0,10
2019-11-07,11:11,11:11 AM,75.12,74.93,74.93,75.11,75.008,3051,228848.395,13
2019-11-07,11:12,11:12 AM,75.175,75.13,75.13,75.175,75.14,130,9768.25,2
2019-11-07,11:13,11:13 AM,75.2,75.085,75.2,75.095,75.119,1340,100659.35,10
2019-11-07,11:14,11:14 AM,75.17,75.085,75.095,75.1,75.127,1230,92406.5,10
2019-11-07,11:15,11:15 AM,75.085,74.865,75.085,74.865,75.038,2117,158854.805,20
2019-11-07,11:16,11:16 AM,74.875,74.505,74.86,74.505,74.735,997,74511.26,12
2019-11-07,11:17,11:17 AM,74.61,74.41,74.61,74.41,74.517,604,45008.44,6
2019-11-07,11:18,11:18 AM,74.39,74.23,74.39,74.23,74.288,230,17086.2,3
2019-11-07,11:19,11:19 AM,74.31,74.07,74.285,74.07,74.182,1682,124774.1,10
2019-11-07,11:20,11:20 AM,74.255,74.08,74.08,74.255,74.172,1200,89006.0,12
2019-11-07,11:21,11:21 AM,74.35,74.29,74.31,74.35,74.308,1600,118892.0,5
2019-11-07,11:22,11:22 AM,74.345,74.275,74.315,74.305,74.308,500,37154.0,5
2019-11-07,11:23,11:23 AM,74.315,74.31,74.315,74.31,74.315,1610,119646.6,9
2019-11-07,11:24,11:24 AM,74.5,74.32,74.47,74.34,74.468,2800,208510.5,12
2019-11-07,11:25,11:25 AM,74.33,74.23,74.27,74.33,74.268,1033,76718.895,10
2019-11-07,11:26,11:26 AM,74.71,74.375,74.375,74.53,74.49600000000002,5179,385815.815,34
2019-11-07,11:27,11:27 AM,74.44,74.28,74.44,74.28,74.39699999999998,703,52300.84,4
2019-11-07,11:28,11:28 AM,74.35,74.175,74.31,74.26,74.275,1254,93140.875,14
2019-11-07,11:29,11:29 AM,74.54,74.42,74.48,74.54,74.47800000000002,599,44612.5,9
2019-11-07,11:30,11:30 AM,74.63,74.525,74.59,74.525,74.575,1727,128790.26,16
2019-11-07,11:31,11:31 AM,74.58,74.535,74.58,74.555,74.546,2297,171233.335,6
2019-11-07,11:32,11:32 AM,74.67,74.56,74.56,74.63,74.627,1759,131268.465,8
2019-11-07,11:33,11:33 AM,74.73,74.55,74.73,74.58,74.623,1500,111933.87,13
2019-11-07,11:34,11:34 AM,74.655,74.58,74.58,74.655,74.625,983,73356.765,9
2019-11-07,11:35,11:35 AM,74.575,74.4,74.575,74.4,74.501,507,37771.8,7
2019-11-07,11:36,11:36 AM,74.44,74.42,74.42,74.44,74.437,265,19725.9,4
2019-11-07,11:37,11:37 AM,74.41,74.185,74.41,74.185,74.281,700,51996.5,7
2019-11-07,11:38,11:38 AM,74.32,74.23,74.23,74.31,74.281,1200,89137.5,12
2019-11-07,11:39,11:39 AM,74.4,74.315,74.32,74.395,74.387,2840,211260.21,9
2019-11-07,11:40,11:40 AM,74.6,74.46,74.46,74.58,74.568,2258,168375.05,5
2019-11-07,11:41,11:41 AM,74.875,74.585,74.585,74.875,74.79899999999998,3503,262021.335,17
2019-11-07,11:42,11:42 AM,74.935,74.87,74.88,74.87,74.9,896,67110.3,11
2019-11-07,11:43,11:43 AM,74.725,74.625,74.725,74.68,74.684,600,44810.5,5
2019-11-07,11:44,11:44 AM,74.68,74.665,74.68,74.665,74.672,200,14934.5,2
2019-11-07,11:45,11:45 AM,74.68,74.64,74.64,74.64,74.653,300,22396.0,3
2019-11-07,11:46,11:46 AM,74.67,74.65,74.65,74.67,74.657,400,29863.0,3
2019-11-07,11:47,11:47 AM,74.745,74.745,74.745,74.745,74.745,100,7474.5,1
2019-11-07,11:48,11:48 AM,74.77,74.74,74.74,74.77,74.764,125,9345.5,2
2019-11-07,11:49,11:49 AM,74.785,74.715,74.725,74.77,74.747,715,53444.1,9
2019-11-07,11:50,11:50 AM,74.8,74.605,74.8,74.61,74.64699999999998,3800,283659.5,16
2019-11-07,11:51,11:51 AM,74.565,74.47,74.565,74.47,74.53,400,29812.0,4
2019-11-07,11:52,11:52 AM,74.53,74.49,74.495,74.49,74.505,300,22351.5,3
2019-11-07,11:53,11:53 AM,74.56,74.46,74.47,74.56,74.495,600,44697.0,6
2019-11-07,11:54,11:54 AM,74.61,74.59,74.61,74.595,74.595,329,24541.77,7
2019-11-07,11:55,11:55 AM,74.66,74.495,74.605,74.495,74.595,800,59676.0,8
2019-11-07,11:56,11:56 AM,74.495,74.495,74.495,74.495,74.495,100,7449.5,1
2019-11-07,11:57,11:57 AM,74.59,74.32,74.59,74.32,74.465,344,25616.08,4
2019-11-07,11:58,11:58 AM,74.345,74.25,74.345,74.25,74.308,340,25264.92,5
2019-11-07,11:59,11:59 AM,74.305,74.13,74.24,74.19,74.21300000000002,778,57738.14,10
2019-11-07,12:00,12 PM,74.25,74.2,74.2,74.25,74.233,300,22270.0,3
2019-11-07,12:01,12:01 PM,74.23,74.14,74.23,74.14,74.176,725,53777.75,9
2019-11-07,12:02,12:02 PM,74.16,74.125,74.15,74.135,74.14699999999998,436,32328.25,5
2019-11-07,12:03,12:03 PM,,,,,,0,0.0,0
2019-11-07,12:04,12:04 PM,74.38,74.27,74.38,74.27,74.289,900,66860.0,6
2019-11-07,12:05,12:05 PM,,,,,,0,0.0,0
2019-11-07,12:06,12:06 PM,74.37,74.31,74.31,74.37,74.325,400,29730.0,4
2019-11-07,12:07,12:07 PM,,,,,,0,0.0,0
2019-11-07,12:08,12:08 PM,74.39,74.355,74.355,74.39,74.368,201,14947.89,3
2019-11-07,12:09,12:09 PM,74.39,74.33,74.39,74.33,74.361,441,32793.075,6
2019-11-07,12:10,12:10 PM,74.285,74.24,74.285,74.24,74.263,200,14852.5,2
2019-11-07,12:11,12:11 PM,74.3,74.3,74.3,74.3,74.3,100,7430.0,1
2019-11-07,12:12,12:12 PM,74.29,74.245,74.29,74.245,74.27199999999998,300,22281.5,3
2019-11-07,12:13,12:13 PM,74.26,74.21,74.22,74.21,74.226,550,40824.5,6
2019-11-07,12:14,12:14 PM,74.125,74.125,74.125,74.125,74.125,45,3335.625,1
2019-11-07,12:15,12:15 PM,74.135,74.11,74.135,74.11,74.12100000000002,400,29648.5,4
2019-11-07,12:16,12:16 PM,74.4,74.1,74.1,74.4,74.168,840,62301.0,11
2019-11-07,12:17,12:17 PM,74.43,74.41,74.41,74.43,74.411,106,7887.58,2
2019-11-07,12:18,12:18 PM,74.605,74.46,74.46,74.59,74.565,385,28707.6,5
2019-11-07,12:19,12:19 PM,74.57,74.56,74.57,74.56,74.565,200,14913.0,2
2019-11-07,12:20,12:20 PM,74.56,74.52,74.52,74.535,74.546,225,16772.94,6
2019-11-07,12:21,12:21 PM,74.535,74.45,74.535,74.45,74.502,274,20413.59,3
2019-11-07,12:22,12:22 PM,74.405,74.4,74.405,74.4,74.40100000000002,400,29760.5,3
2019-11-07,12:23,12:23 PM,74.43,74.335,74.42,74.335,74.387,245,18224.85,3
2019-11-07,12:24,12:24 PM,74.39,74.335,74.335,74.37,74.358,900,66922.5,10
2019-11-07,12:25,12:25 PM,74.4,74.38,74.38,74.39,74.395,201,14953.38,3
2019-11-07,12:26,12:26 PM,74.37,74.28,74.37,74.28,74.328,530,39393.65,6
2019-11-07,12:27,12:27 PM,74.405,74.295,74.295,74.405,74.333,900,66900.0,8
2019-11-07,12:28,12:28 PM,74.44,74.405,74.44,74.43,74.42,400,29768.0,4
2019-11-07,12:29,12:29 PM,74.505,74.46,74.46,74.505,74.487,600,44692.0,6
2019-11-07,12:30,12:30 PM,74.55,74.525,74.55,74.525,74.539,400,29815.5,4
2019-11-07,12:31,12:31 PM,74.58,74.54,74.54,74.545,74.561,460,34298.2,7
2019-11-07,12:32,12:32 PM,74.49,74.465,74.47,74.47,74.473,500,37236.5,5
2019-11-07,12:33,12:33 PM,74.45,74.41,74.45,74.43,74.431,560,41681.3,6
2019-11-07,12:34,12:34 PM,74.43,74.38,74.43,74.42,74.41,800,59528.0,10
2019-11-07,12:35,12:35 PM,74.43,74.41,74.43,74.41,74.417,300,22325.0,3
2019-11-07,12:36,12:36 PM,74.44,74.43,74.43,74.44,74.437,300,22331.0,3
2019-11-07,12:37,12:37 PM,74.45,74.325,74.45,74.325,74.39,776,57726.88,8
2019-11-07,12:38,12:38 PM,74.36,74.29,74.29,74.32,74.33,810,60207.1,9
2019-11-07,12:39,12:39 PM,74.305,74.29,74.3,74.305,74.29899999999998,400,29719.5,5
2019-11-07,12:40,12:40 PM,74.37,74.3,74.3,74.37,74.337,630,46832.3,10
2019-11-07,12:41,12:41 PM,74.375,74.345,74.35,74.355,74.359,501,37253.85,6
2019-11-07,12:42,12:42 PM,74.49,74.435,74.435,74.49,74.458,300,22337.5,3
2019-11-07,12:43,12:43 PM,74.51,74.46,74.51,74.475,74.476,700,52133.5,10
2019-11-07,12:44,12:44 PM,74.485,74.46,74.47,74.485,74.475,600,44685.0,6
2019-11-07,12:45,12:45 PM,74.555,74.52,74.52,74.555,74.535,424,31602.98,5
2019-11-07,12:46,12:46 PM,74.565,74.53,74.56,74.53,74.551,600,44730.5,7
2019-11-07,12:47,12:47 PM,74.52,74.465,74.52,74.475,74.49,840,62571.975,12
2019-11-07,12:48,12:48 PM,74.475,74.435,74.475,74.45,74.45100000000002,1000,74450.8,11
2019-11-07,12:49,12:49 PM,74.53,74.425,74.45,74.53,74.469,1000,74468.5,8
2019-11-07,12:50,12:50 PM,74.56,74.5,74.53,74.56,74.52600000000002,900,67073.5,9
2019-11-07,12:51,12:51 PM,74.61,74.525,74.55,74.61,74.561,325,24232.5,4
2019-11-07,12:52,12:52 PM,74.605,74.57,74.6,74.57,74.595,800,59676.0,12
2019-11-07,12:53,12:53 PM,74.61,74.56,74.61,74.58,74.571,251,18717.31,5
2019-11-07,12:54,12:54 PM,74.62,74.58,74.59,74.59,74.598,933,69600.17,9
2019-11-07,12:55,12:55 PM,74.59,74.56,74.585,74.56,74.575,665,49592.09,10
2019-11-07,12:56,12:56 PM,74.56,74.5,74.56,74.52,74.53699999999998,1300,96898.5,12
2019-11-07,12:57,12:57 PM,74.58,74.55,74.56,74.55,74.569,918,68454.4,8
2019-11-07,12:58,12:58 PM,74.65,74.63,74.65,74.64,74.637,600,44782.0,6
2019-11-07,12:59,12:59 PM,74.69,74.65,74.68,74.65,74.67,1110,82883.845,12
2019-11-07,13:00,1 PM,74.625,74.555,74.625,74.57,74.57600000000002,800,59660.5,8
2019-11-07,13:01,1:01 PM,74.52,74.47,74.515,74.47,74.502,300,22350.5,3
2019-11-07,13:02,1:02 PM,74.47,74.38,74.445,74.38,74.439,800,59551.0,8
2019-11-07,13:03,1:03 PM,74.375,74.26,74.375,74.275,74.32,1601,118986.775,20
